Time[s]	Rotor azimuth angle[deg]	Hub wind speed magnitude[m/s]	ACTTORQUE1[Nm]	PITRAT1[deg/s]	PITFRIC1[kNm]	PITCH1[deg]	Blade root 1 Fx[KN]	Blade root 1 Fy[KN]	Blade root 1 Fz[KN]	Blade root 1 Mx[kNm]	Blade root 1 My[kNm]	Blade root 1 Mz[kNm]	
END_OF_HEADER
50.00	175.0	2.9	0.0	0.0	-12.7	-0.1	137.8	-38.4	507.8	1478.8	6297.4	-12.7	
50.05	176.6	2.9	0.0	0.0	-9.8	-0.1	136.0	-28.0	508.4	1257.5	6296.0	-9.8	
50.10	178.2	2.9	0.0	0.0	-5.5	-0.1	133.0	-19.2	507.5	1028.3	6280.2	-5.5	
50.15	179.7	2.9	0.0	0.0	-3.4	-0.1	133.0	-10.7	507.0	792.4	6315.6	-3.4	
50.20	181.3	3.1	0.0	0.0	-7.1	-0.1	137.8	-1.9	507.9	553.7	6432.0	-7.1	
50.25	182.9	3.1	0.0	0.0	-12.4	-0.1	143.8	5.7	508.0	308.6	6575.6	-12.4	
50.30	184.4	3.1	0.0	0.0	-16.6	-0.1	148.3	14.8	506.8	78.5	6696.5	-16.6	
50.35	186.0	3.0	0.0	0.0	-17.6	-0.1	149.6	24.6	505.7	-142.5	6739.2	-17.6	
50.40	187.5	3.1	0.0	0.0	-14.8	-0.1	147.2	32.5	504.9	-367.9	6695.2	-14.8	
50.45	189.1	3.1	0.0	0.0	-12.5	-0.1	144.3	39.4	503.6	-568.7	6629.1	-12.5	
50.50	190.7	3.0	0.0	0.0	-11.4	-0.1	142.4	46.8	501.7	-760.5	6576.4	-11.4	
50.55	192.2	2.9	0.0	0.0	-10.5	-0.1	140.7	54.8	499.8	-968.2	6519.1	-10.5	
50.60	193.8	2.9	0.0	0.0	-11.5	-0.1	140.2	63.8	498.2	-1153.1	6467.2	-11.5	
50.65	195.4	3.0	0.0	0.0	-13.7	-0.1	140.4	72.0	496.4	-1295.8	6405.1	-13.7	
50.70	196.9	2.8	0.0	0.0	-13.9	-0.1	138.7	77.6	494.4	-1423.1	6282.5	-13.9	
50.75	198.5	2.8	0.0	0.0	-12.6	-0.1	135.0	84.3	492.9	-1552.1	6101.2	-12.6	
50.80	200.0	2.9	0.0	0.0	-10.6	-0.1	129.5	92.3	490.6	-1694.3	5894.8	-10.6	
50.85	201.6	3.1	0.0	0.0	-9.2	-0.1	123.7	98.3	486.9	-1835.4	5703.1	-9.2	
50.90	203.2	3.4	0.0	0.0	-9.5	-0.1	120.2	105.2	482.9	-1969.5	5563.2	-9.5	
50.95	204.7	3.6	0.0	0.0	-9.4	-0.1	119.0	112.9	479.8	-2129.7	5466.3	-9.4	
51.00	206.3	3.7	0.0	0.0	-9.3	-0.1	117.8	118.1	476.5	-2300.2	5386.5	-9.3	
51.05	207.8	3.7	0.0	0.0	-11.5	-0.1	117.5	123.2	472.6	-2424.7	5338.5	-11.5	
51.10	209.4	3.6	0.0	0.0	-13.0	-0.1	116.9	128.7	468.3	-2531.4	5296.9	-13.0	
51.15	210.9	3.7	0.0	0.0	-12.5	-0.1	115.4	133.6	464.3	-2664.7	5246.0	-12.5	
51.20	212.5	3.7	0.0	0.0	-14.8	-0.1	115.8	141.2	460.4	-2808.4	5244.8	-14.8	
51.25	214.0	3.7	0.0	0.0	-18.1	-0.1	117.6	149.2	455.4	-2980.4	5292.3	-18.1	
51.30	215.6	3.7	0.0	0.0	-19.7	-0.1	118.3	155.8	449.4	-3200.8	5331.3	-19.7	
51.35	217.1	3.6	0.0	0.0	-20.8	-0.1	118.2	164.8	444.1	-3426.6	5335.0	-20.8	
51.40	218.7	3.7	0.0	0.0	-20.6	-0.1	115.8	174.4	439.4	-3636.2	5264.7	-20.6	
51.45	220.2	3.8	0.0	0.0	-18.3	-0.1	109.9	179.1	434.4	-3816.2	5117.2	-18.3	
51.50	221.8	3.8	0.0	0.0	-17.4	-0.1	105.3	183.6	428.6	-3946.5	4984.9	-17.4	
51.55	223.3	3.8	0.0	0.0	-18.0	-0.1	103.9	188.1	423.1	-4080.5	4918.8	-18.0	
51.60	224.9	3.8	0.0	0.0	-21.0	-0.1	105.4	192.1	417.6	-4245.9	4942.5	-21.0	
51.65	226.4	3.7	0.0	0.0	-27.3	-0.1	110.1	199.5	412.1	-4414.5	5061.2	-27.3	
51.70	228.0	3.7	0.0	0.0	-30.9	-0.1	114.1	208.0	406.1	-4622.7	5188.9	-30.9	
51.75	229.5	3.6	0.0	0.0	-29.2	-0.1	114.5	215.0	400.2	-4866.9	5255.0	-29.2	
51.80	231.1	3.6	0.0	0.0	-27.9	-0.1	114.3	222.7	394.7	-5070.9	5299.9	-27.9	
51.85	232.6	3.6	0.0	0.0	-28.6	-0.1	114.5	229.5	389.3	-5221.7	5348.6	-28.6	
51.90	234.2	3.5	0.0	0.0	-29.5	-0.1	115.5	232.6	383.5	-5330.9	5404.7	-29.5	
51.95	235.7	3.3	0.0	0.0	-33.3	-0.1	120.2	235.6	377.8	-5375.7	5503.4	-33.3	
52.00	237.2	3.4	0.0	0.0	-38.6	-0.1	126.0	237.4	372.5	-5388.5	5603.8	-38.6	
52.05	238.8	3.5	0.0	0.0	-41.8	-0.1	127.8	237.2	366.5	-5418.4	5634.2	-41.8	
52.10	240.3	3.7	0.0	0.0	-41.4	-0.1	125.2	241.2	359.4	-5485.9	5580.6	-41.4	
52.15	241.9	3.6	0.0	0.0	-36.1	-0.1	118.4	246.5	352.0	-5597.9	5434.9	-36.1	
52.20	243.4	3.6	0.0	0.0	-28.8	-0.1	110.2	250.8	345.3	-5716.3	5241.7	-28.8	
52.25	244.9	3.7	0.0	0.0	-24.7	-0.1	105.0	255.9	339.1	-5803.2	5088.9	-24.7	
52.30	246.5	3.8	0.0	0.0	-22.3	-0.1	101.9	259.9	332.0	-5883.9	4996.0	-22.3	
52.35	248.0	3.8	0.0	0.0	-22.1	-0.1	99.6	261.7	323.6	-5938.2	4955.5	-22.1	
52.40	249.5	3.7	0.0	0.0	-24.7	-0.1	99.9	264.1	315.1	-5933.4	4961.4	-24.7	
52.45	251.1	3.6	0.0	0.0	-26.8	-0.1	100.9	264.0	307.7	-5903.6	4950.6	-26.8	
52.50	252.6	3.5	0.0	0.0	-27.5	-0.1	102.0	263.0	301.6	-5899.7	4919.1	-27.5	
52.55	254.1	3.4	0.0	0.0	-28.9	-0.1	103.4	265.4	294.9	-5939.7	4916.2	-28.9	
52.60	255.7	3.4	0.0	0.0	-28.8	-0.1	103.0	268.1	286.2	-6036.1	4940.8	-28.8	
52.65	257.2	3.3	0.0	0.0	-28.1	-0.1	102.2	272.1	276.8	-6152.7	4982.4	-28.1	
52.70	258.7	3.4	0.0	0.0	-27.5	-0.1	103.4	277.8	268.7	-6261.5	5033.6	-27.5	
52.75	260.3	3.5	0.0	0.0	-27.9	-0.1	105.6	280.6	262.0	-6356.9	5074.0	-27.9	
52.80	261.8	3.3	0.0	0.0	-31.7	-0.1	108.3	280.7	255.0	-6414.2	5124.6	-31.7	
52.85	263.3	3.3	0.0	0.0	-36.0	-0.1	109.4	280.6	246.8	-6444.6	5155.2	-36.0	
52.90	264.9	3.3	0.0	0.0	-37.5	-0.1	108.0	280.5	239.4	-6472.6	5111.0	-37.5	
52.95	266.4	3.2	0.0	0.0	-37.5	-0.1	105.4	279.9	233.1	-6496.8	5007.3	-37.5	
53.00	267.9	2.9	0.0	0.0	-38.1	-0.1	103.0	279.7	226.3	-6516.8	4906.1	-38.1	
53.05	269.5	2.8	0.0	0.0	-38.7	-0.1	100.2	280.2	218.2	-6582.5	4825.7	-38.7	
53.10	271.0	3.0	0.0	0.0	-36.9	-0.1	96.5	283.5	209.7	-6703.6	4748.1	-36.9	
53.15	272.5	3.2	0.0	0.0	-34.9	-0.1	93.4	289.2	201.6	-6815.2	4672.6	-34.9	
53.20	274.0	3.3	0.0	0.0	-34.2	-0.1	91.2	292.4	194.2	-6872.1	4599.6	-34.2	
53.25	275.6	3.3	0.0	0.0	-34.4	-0.1	89.3	290.7	187.3	-6871.6	4521.6	-34.4	
53.30	277.1	3.3	0.0	0.0	-35.6	-0.1	89.3	289.1	181.0	-6840.5	4465.6	-35.6	
53.35	278.6	3.2	0.0	0.0	-37.2	-0.1	89.8	287.4	174.9	-6802.2	4426.3	-37.2	
53.40	280.2	3.2	0.0	0.0	-38.9	-0.1	90.3	283.6	167.5	-6740.7	4422.8	-38.9	
53.45	281.7	3.3	0.0	0.0	-41.3	-0.1	91.4	279.6	159.3	-6650.9	4444.0	-41.3	
53.50	283.2	3.3	0.0	0.0	-42.7	-0.1	92.9	277.5	151.5	-6594.2	4451.6	-42.7	
53.55	284.8	3.2	0.0	0.0	-42.1	-0.1	93.5	276.6	144.4	-6579.4	4432.0	-42.1	
53.60	286.3	3.1	0.0	0.0	-41.3	-0.1	92.8	274.8	136.2	-6538.6	4411.6	-41.3	
53.65	287.8	3.1	0.0	0.0	-40.3	-0.1	91.5	272.4	127.4	-6455.6	4402.1	-40.3	
53.70	289.3	3.2	0.0	0.0	-36.9	-0.1	89.8	269.5	119.9	-6362.8	4372.6	-36.9	
53.75	290.9	3.1	0.0	0.0	-34.1	-0.1	89.2	266.6	113.6	-6254.1	4343.5	-34.1	
53.80	292.4	3.2	0.0	0.0	-33.8	-0.1	90.0	262.5	106.9	-6101.8	4345.7	-33.8	
53.85	293.9	3.3	0.0	0.0	-33.6	-0.1	89.8	254.6	99.2	-5936.0	4351.1	-33.6	
53.90	295.4	3.3	0.0	0.0	-32.4	-0.1	89.8	248.7	91.7	-5795.2	4357.3	-32.4	
53.95	297.0	3.4	0.0	0.0	-32.1	-0.1	91.4	247.7	84.9	-5692.8	4391.5	-32.1	
54.00	298.5	3.6	0.0	0.0	-32.1	-0.1	92.4	245.3	77.6	-5621.6	4444.6	-32.1	
54.05	300.0	3.8	0.0	0.0	-32.7	-0.1	93.6	241.0	70.0	-5552.3	4525.4	-32.7	
54.10	301.5	3.7	0.0	0.0	-33.8	-0.1	95.4	237.8	63.8	-5487.2	4599.5	-33.8	
54.15	303.1	3.6	0.0	0.0	-32.9	-0.1	96.0	234.6	58.9	-5438.4	4625.7	-32.9	
54.20	304.6	3.5	0.0	0.0	-32.6	-0.1	95.6	230.9	52.9	-5367.1	4641.2	-32.6	
54.25	306.1	3.4	0.0	0.0	-34.3	-0.1	96.3	226.1	45.7	-5257.4	4686.6	-34.3	
54.30	307.6	3.3	0.0	0.0	-36.2	-0.1	98.3	219.8	39.5	-5166.6	4741.1	-36.2	
54.35	309.2	3.2	0.0	0.0	-37.8	-0.1	100.7	214.7	33.9	-5099.1	4782.8	-37.8	
54.40	310.7	3.2	0.0	0.0	-40.8	-0.1	102.8	212.1	27.1	-5013.9	4819.3	-40.8	
54.45	312.2	3.2	0.0	0.0	-40.9	-0.1	102.0	209.1	20.4	-4942.0	4792.0	-40.9	
54.50	313.7	3.3	0.0	0.0	-37.5	-0.1	98.6	206.6	15.5	-4895.2	4678.4	-37.5	
54.55	315.2	3.3	0.0	0.0	-34.5	-0.1	94.8	205.3	11.5	-4846.2	4531.0	-34.5	
54.60	316.8	3.3	0.0	0.0	-32.7	-0.1	90.5	201.0	6.6	-4776.8	4379.9	-32.7	
54.65	318.3	3.3	0.0	0.0	-30.2	-0.1	86.5	195.5	1.3	-4682.9	4256.6	-30.2	
54.70	319.8	3.2	0.0	0.0	-28.7	-0.1	84.2	190.2	-3.4	-4550.5	4181.1	-28.7	
54.75	321.3	3.1	0.0	0.0	-27.3	-0.1	82.7	182.4	-8.0	-4381.9	4148.2	-27.3	
54.80	322.8	3.3	0.0	0.0	-26.4	-0.1	81.4	172.2	-13.8	-4181.1	4157.4	-26.4	
54.85	324.3	3.3	0.0	0.0	-26.4	-0.1	81.9	163.2	-19.2	-3960.1	4208.0	-26.4	
54.90	325.9	3.2	0.0	0.0	-26.7	-0.1	84.6	155.6	-22.9	-3747.1	4298.6	-26.7	
54.95	327.4	3.1	0.0	0.0	-28.1	-0.1	90.0	149.7	-25.8	-3551.4	4448.1	-28.1	
55.00	328.9	3.1	0.0	0.0	-29.6	-0.1	96.0	144.1	-29.9	-3362.5	4641.4	-29.6	
55.05	330.4	3.1	0.0	0.0	-28.5	-0.1	99.8	137.0	-34.6	-3163.4	4808.3	-28.5	
55.10	331.9	3.3	0.0	0.0	-26.2	-0.1	101.3	129.5	-38.6	-2948.7	4919.1	-26.2	
55.15	333.4	3.5	0.0	0.0	-21.9	-0.1	101.1	121.0	-42.2	-2697.9	4978.1	-21.9	
55.20	334.9	3.7	0.0	0.0	-19.2	-0.1	101.3	111.2	-46.0	-2407.0	5035.6	-19.2	
55.25	336.4	3.7	0.0	0.0	-19.0	-0.1	103.1	101.5	-49.4	-2105.0	5112.8	-19.0	
55.30	338.0	3.7	0.0	0.0	-19.6	-0.1	106.2	92.8	-51.8	-1850.8	5196.9	-19.6	
55.35	339.5	3.8	0.0	0.0	-19.7	-0.1	108.9	85.4	-54.2	-1658.9	5265.3	-19.7	
55.40	341.0	4.0	0.0	0.0	-19.8	-0.1	110.0	79.2	-57.3	-1495.3	5307.3	-19.8	
55.45	342.5	3.9	0.0	0.0	-16.8	-0.1	109.0	73.5	-60.2	-1375.3	5309.9	-16.8	
55.50	344.0	3.7	0.0	0.0	-12.1	-0.1	106.4	68.3	-62.0	-1296.9	5282.1	-12.1	
55.55	345.5	3.7	0.0	0.0	-7.9	-0.1	104.9	63.5	-64.4	-1206.3	5302.2	-7.9	
55.60	347.0	3.9	0.0	0.0	-8.0	-0.1	105.9	55.7	-68.0	-1060.7	5399.9	-8.0	
55.65	348.5	4.1	0.0	0.0	-11.4	-0.1	109.6	46.1	-70.8	-874.9	5546.3	-11.4	
55.70	350.0	4.1	0.0	0.0	-15.6	-0.1	114.8	38.7	-71.7	-686.9	5701.0	-15.6	
55.75	351.5	3.9	0.0	0.0	-17.5	-0.1	118.2	32.2	-72.4	-531.3	5814.6	-17.5	
55.80	353.0	3.6	0.0	0.0	-17.3	-0.1	120.3	25.5	-74.9	-409.2	5903.1	-17.3	
55.85	354.5	3.4	0.0	0.0	-16.3	-0.1	120.4	21.3	-76.3	-325.0	5926.6	-16.3	
55.90	356.0	3.6	0.0	0.0	-11.7	-0.1	117.8	18.8	-75.4	-289.0	5869.9	-11.7	
55.95	357.5	3.7	0.0	0.0	-6.9	-0.1	114.2	15.1	-75.0	-230.8	5794.8	-6.9	
56.00	359.0	3.6	0.0	0.0	-4.7	-0.1	111.2	9.2	-76.4	-101.0	5754.2	-4.7	
56.05	0.5	3.4	0.0	0.0	-3.3	-0.1	109.7	-0.8	-77.4	108.2	5749.3	-3.3	
56.10	2.0	3.3	0.0	0.0	-4.9	-0.1	111.3	-12.9	-76.2	389.8	5790.3	-4.9	
56.15	3.5	3.3	0.0	0.0	-5.8	-0.1	113.3	-25.7	-74.4	729.3	5829.7	-5.8	
56.20	5.0	3.4	0.0	0.0	-6.7	-0.1	114.3	-37.2	-74.2	1028.3	5865.1	-6.7	
56.25	6.5	3.4	0.0	0.0	-7.3	-0.1	115.9	-44.8	-74.6	1275.2	5919.3	-7.3	
56.30	8.0	3.4	0.0	0.0	-5.9	-0.1	117.5	-51.1	-73.0	1484.7	5957.7	-5.9	
56.35	9.5	3.5	0.0	0.0	-2.8	-0.1	118.3	-57.5	-71.1	1639.1	5986.6	-2.8	
56.40	11.0	3.6	0.0	0.0	-1.1	-0.1	119.1	-62.6	-70.8	1817.5	6024.1	-1.1	
56.45	12.5	3.5	0.0	0.0	0.4	-0.1	118.3	-69.3	-70.6	2064.6	6024.3	0.4	
56.50	14.0	3.4	0.0	0.0	4.3	-0.1	115.5	-80.1	-68.8	2372.7	5966.0	4.3	
56.55	15.5	3.6	0.0	0.0	5.5	-0.1	113.7	-91.6	-66.1	2747.5	5905.9	5.5	
56.60	17.0	3.5	0.0	0.0	4.6	-0.1	112.6	-103.6	-64.4	3101.9	5866.8	4.6	
56.65	18.5	3.4	0.0	0.0	5.2	-0.1	110.9	-113.8	-63.7	3342.9	5843.5	5.2	
56.70	19.9	3.1	0.0	0.0	4.3	-0.1	111.4	-118.6	-61.8	3505.3	5868.1	4.3	
56.75	21.4	3.1	0.0	0.0	5.3	-0.1	111.5	-122.0	-58.9	3564.8	5895.6	5.3	
56.80	22.9	3.1	0.0	0.0	6.9	-0.1	112.0	-126.7	-57.0	3572.8	5946.9	6.9	
56.85	24.4	3.1	0.0	0.0	5.2	-0.1	114.5	-129.6	-55.2	3605.1	6036.7	5.2	
56.90	25.9	3.1	0.0	0.0	5.0	-0.1	115.9	-134.3	-52.2	3677.7	6101.1	5.0	
56.95	27.4	3.1	0.0	0.0	1.5	-0.1	117.2	-142.1	-48.9	3815.6	6144.2	1.5	
57.00	28.9	3.2	0.0	0.0	-3.7	-0.1	118.9	-150.9	-45.1	4052.3	6167.7	-3.7	
57.05	30.4	3.4	0.0	0.0	-4.6	-0.1	117.4	-160.7	-41.7	4230.0	6125.4	-4.6	
57.10	31.9	3.5	0.0	0.0	-1.8	-0.1	115.3	-165.6	-38.5	4290.8	6094.7	-1.8	
57.15	33.4	3.5	0.0	0.0	-3.4	-0.1	115.7	-165.6	-34.2	4313.9	6114.1	-3.4	
57.20	34.9	3.6	0.0	0.0	-4.8	-0.1	116.7	-168.2	-30.1	4301.7	6146.0	-4.8	
57.25	36.4	3.7	0.0	0.0	-3.0	-0.1	116.5	-171.0	-24.8	4304.6	6126.9	-3.0	
57.30	37.8	3.7	0.0	0.0	-2.6	-0.1	115.0	-172.3	-18.8	4348.4	6055.3	-2.6	
57.35	39.3	3.8	0.0	0.0	-1.6	-0.1	111.3	-178.9	-14.0	4466.8	5945.9	-1.6	
57.40	40.8	3.9	0.0	0.0	-3.8	-0.1	108.2	-189.1	-9.6	4703.2	5840.1	-3.8	
57.45	42.3	3.9	0.0	0.0	-7.3	-0.1	106.8	-198.2	-3.6	4976.3	5750.5	-7.3	
57.50	43.8	4.0	0.0	0.0	-9.4	-0.1	107.0	-208.0	1.8	5214.8	5703.7	-9.4	
57.55	45.3	4.1	0.0	0.0	-10.8	-0.1	109.0	-215.6	6.1	5416.9	5717.2	-10.8	
57.60	46.8	4.1	0.0	0.0	-11.1	-0.1	111.0	-219.9	10.8	5557.3	5735.4	-11.1	
57.65	48.3	4.1	0.0	0.0	-10.3	-0.1	111.3	-223.2	16.5	5655.8	5705.2	-10.3	
57.70	49.8	4.1	0.0	0.0	-9.2	-0.1	111.1	-225.2	22.5	5771.7	5649.7	-9.2	
57.75	51.2	4.1	0.0	0.0	-6.3	-0.1	108.5	-228.6	28.5	5928.5	5535.1	-6.3	
57.80	52.7	4.3	0.0	0.0	-1.4	-0.1	103.3	-235.2	33.7	6106.4	5371.3	-1.4	
57.85	54.2	4.2	0.0	0.0	-0.5	-0.1	99.6	-241.8	38.7	6324.5	5251.6	-0.5	
57.90	55.7	4.2	0.0	0.0	-4.1	-0.1	98.0	-249.2	44.0	6562.3	5179.3	-4.1	
57.95	57.2	4.3	0.0	0.0	-4.9	-0.1	96.1	-257.4	49.6	6739.7	5094.0	-4.9	
58.00	58.7	4.4	0.0	0.0	-3.9	-0.1	94.4	-262.1	55.4	6838.5	5001.7	-3.9	
58.05	60.2	4.5	0.0	0.0	-3.6	-0.1	93.2	-264.5	61.1	6884.5	4920.5	-3.6	
58.10	61.7	4.5	0.0	0.0	-3.6	-0.1	91.9	-266.8	67.2	6874.1	4841.9	-3.6	
58.15	63.1	4.4	0.0	0.0	-2.8	-0.1	91.0	-266.1	74.2	6821.7	4766.0	-2.8	
58.20	64.6	4.3	0.0	0.0	-1.2	-0.1	90.0	-264.5	81.1	6771.0	4699.9	-1.2	
58.25	66.1	4.2	0.0	0.0	-0.7	-0.1	88.7	-267.0	86.7	6758.1	4657.0	-0.7	
58.30	67.6	4.1	0.0	0.0	-3.0	-0.1	89.2	-270.3	92.9	6809.7	4653.1	-3.0	
58.35	69.1	4.0	0.0	0.0	-5.8	-0.1	91.3	-272.7	100.4	6874.8	4661.7	-5.8	
58.40	70.6	4.0	0.0	0.0	-4.6	-0.1	92.3	-276.4	108.1	6889.7	4650.5	-4.6	
58.45	72.0	4.1	0.0	0.0	-4.0	-0.1	92.5	-277.6	115.4	6883.8	4654.4	-4.0	
58.50	73.5	4.2	0.0	0.0	-5.2	-0.1	92.1	-276.7	122.0	6863.0	4671.9	-5.2	
58.55	75.0	4.3	0.0	0.0	-4.1	-0.1	90.8	-275.7	128.7	6792.3	4667.6	-4.1	
58.60	76.5	4.4	0.0	0.0	-3.6	-0.1	91.4	-272.6	136.5	6721.2	4675.9	-3.6	
58.65	78.0	4.2	0.0	0.0	-6.0	-0.1	93.2	-271.8	144.9	6721.4	4701.5	-6.0	
58.70	79.5	4.0	0.0	0.0	-9.6	-0.1	94.4	-276.7	152.3	6785.2	4729.9	-9.6	
58.75	80.9	4.0	0.0	0.0	-12.4	-0.1	95.3	-281.3	159.5	6888.0	4764.3	-12.4	
58.80	82.4	4.1	0.0	0.0	-13.9	-0.1	96.5	-284.1	167.0	6992.1	4806.9	-13.9	
58.85	83.9	4.1	0.0	0.0	-16.2	-0.1	98.4	-289.1	173.8	7104.4	4869.7	-16.2	
58.90	85.4	4.2	0.0	0.0	-19.9	-0.1	102.1	-292.4	180.8	7209.4	4961.6	-19.9	
58.95	86.9	4.2	0.0	0.0	-20.6	-0.1	105.6	-292.7	188.6	7251.0	5029.5	-20.6	
59.00	88.3	4.2	0.0	0.0	-17.8	-0.1	106.4	-292.1	196.0	7250.4	5044.8	-17.8	
59.05	89.8	4.2	0.0	0.0	-15.6	-0.1	105.0	-290.1	202.5	7278.7	5028.2	-15.6	
59.10	91.3	4.2	0.0	0.0	-12.6	-0.1	101.5	-288.7	208.5	7332.4	4974.9	-12.6	
59.15	92.8	4.2	0.0	0.0	-10.2	-0.1	99.7	-290.1	215.2	7406.3	4926.8	-10.2	
59.20	94.3	4.3	0.0	0.0	-10.7	-0.1	100.2	-292.7	223.1	7496.2	4897.1	-10.7	
59.25	95.7	4.3	0.0	0.0	-11.3	-0.1	101.5	-295.6	230.9	7593.1	4885.6	-11.3	
59.30	97.2	4.3	0.0	0.0	-13.0	-0.1	101.9	-297.2	237.4	7647.9	4864.2	-13.0	
59.35	98.7	4.2	0.0	0.0	-12.0	-0.1	100.8	-296.1	243.9	7631.0	4804.5	-12.0	
59.40	100.2	4.2	0.0	0.0	-10.3	-0.1	99.2	-293.7	251.2	7559.8	4719.5	-10.3	
59.45	101.7	4.1	0.0	0.0	-10.1	-0.1	98.4	-292.0	257.7	7454.0	4656.1	-10.1	
59.50	103.1	4.0	0.0	0.0	-10.2	-0.1	98.4	-288.7	263.4	7328.6	4622.0	-10.2	
59.55	104.6	4.0	0.0	0.0	-9.5	-0.1	98.6	-283.5	269.5	7192.3	4595.9	-9.5	
59.60	106.1	3.9	0.0	0.0	-8.7	-0.1	99.3	-279.4	276.3	7074.9	4573.8	-8.7	
59.65	107.6	3.8	0.0	0.0	-9.7	-0.1	100.3	-277.3	283.6	6994.6	4552.8	-9.7	
59.70	109.0	3.8	0.0	0.0	-9.8	-0.1	100.0	-275.1	290.4	6908.7	4521.5	-9.8	
59.75	110.5	3.8	0.0	0.0	-7.9	-0.1	97.9	-271.7	296.6	6788.4	4462.8	-7.9	
59.80	112.0	3.8	0.0	0.0	-6.5	-0.1	96.0	-266.8	302.8	6651.0	4403.6	-6.5	
59.85	113.5	3.7	0.0	0.0	-5.7	-0.1	94.5	-261.4	309.4	6505.6	4354.9	-5.7	
59.90	114.9	3.6	0.0	0.0	-4.9	-0.1	93.6	-256.8	316.4	6352.7	4315.9	-4.9	
59.95	116.4	3.5	0.0	0.0	-4.4	-0.1	92.7	-251.7	323.3	6194.4	4278.0	-4.4	
60.00	117.9	3.5	0.0	0.0	-4.1	-0.1	91.0	-246.5	329.8	6046.4	4235.2	-4.1	
60.05	119.4	3.5	0.0	0.0	-4.0	-0.1	88.9	-244.1	336.3	5941.8	4188.3	-4.0	
60.10	120.8	3.5	0.0	0.0	-4.0	-0.1	87.8	-242.9	343.5	5903.2	4157.3	-4.0	
60.15	122.3	3.5	0.0	0.0	-4.4	-0.1	87.8	-242.3	351.0	5900.0	4153.9	-4.4	
60.20	123.8	3.5	0.0	0.0	-5.1	-0.1	88.9	-240.6	357.2	5896.9	4191.7	-5.1	
60.25	125.2	3.7	0.0	0.0	-7.2	-0.1	91.7	-238.1	362.9	5886.4	4281.3	-7.2	
60.30	126.7	3.8	0.0	0.0	-9.2	-0.1	95.4	-235.1	369.2	5857.9	4404.3	-9.2	
60.35	128.2	3.9	0.0	0.0	-9.3	-0.1	99.4	-231.3	375.6	5805.2	4540.8	-9.3	
60.40	129.7	3.9	0.0	0.0	-9.2	-0.1	102.8	-225.4	380.9	5737.1	4667.2	-9.2	
60.45	131.1	3.8	0.0	0.0	-9.2	-0.1	105.1	-218.6	385.8	5661.1	4765.5	-9.2	
60.50	132.6	3.6	0.0	0.0	-9.2	-0.1	106.9	-214.3	391.2	5593.1	4832.4	-9.2	
60.55	134.1	3.5	0.0	0.0	-9.8	-0.1	108.4	-212.6	397.1	5550.4	4879.7	-9.8	
60.60	135.5	3.4	0.0	0.0	-10.8	-0.1	108.6	-210.8	401.9	5511.0	4901.0	-10.8	
60.65	137.0	3.3	0.0	0.0	-11.1	-0.1	107.3	-206.5	405.7	5431.1	4894.2	-11.1	
60.70	138.5	3.4	0.0	0.0	-10.6	-0.1	106.1	-201.0	409.8	5303.3	4878.8	-10.6	
60.75	139.9	3.4	0.0	0.0	-12.0	-0.1	106.7	-194.6	414.4	5129.7	4893.1	-12.0	
60.80	141.4	3.2	0.0	0.0	-14.5	-0.1	108.4	-188.1	418.7	4915.7	4925.9	-14.5	
60.85	142.9	3.2	0.0	0.0	-16.1	-0.1	109.4	-180.0	422.4	4666.8	4939.0	-16.1	
60.90	144.4	3.2	0.0	0.0	-15.7	-0.1	108.9	-170.5	426.4	4423.8	4910.5	-15.7	
60.95	145.8	3.2	0.0	0.0	-14.2	-0.1	106.8	-162.3	431.2	4217.3	4841.2	-14.2	
61.00	147.3	3.0	0.0	0.0	-12.2	-0.1	103.9	-155.6	435.8	4029.2	4770.1	-12.2	
61.05	148.8	3.0	0.0	0.0	-10.2	-0.1	101.5	-150.4	439.3	3839.1	4734.9	-10.2	
61.10	150.2	3.1	0.0	0.0	-9.6	-0.1	101.6	-143.8	442.4	3650.3	4771.6	-9.6	
61.15	151.7	3.2	0.0	0.0	-10.5	-0.1	104.3	-135.0	446.0	3457.4	4861.6	-10.5	
61.20	153.2	3.3	0.0	0.0	-11.8	-0.1	107.7	-127.3	449.8	3244.2	4951.7	-11.8	
61.25	154.6	3.4	0.0	0.0	-15.5	-0.1	111.7	-119.7	453.7	3035.3	5029.4	-15.5	
61.30	156.1	3.3	0.0	0.0	-19.7	-0.1	114.8	-111.5	457.8	2833.5	5065.6	-19.7	
61.35	157.6	3.2	0.0	0.0	-19.3	-0.1	113.7	-104.9	461.8	2645.2	5017.3	-19.3	
61.40	159.0	3.2	0.0	0.0	-16.6	-0.1	110.3	-99.2	465.2	2508.7	4918.6	-16.6	
61.45	160.5	3.2	0.0	0.0	-15.0	-0.1	106.8	-93.8	468.0	2414.6	4816.7	-15.0	
61.50	162.0	3.2	0.0	0.0	-14.5	-0.1	104.0	-89.0	470.5	2333.3	4734.4	-14.5	
61.55	163.4	3.3	0.0	0.0	-12.5	-0.1	101.9	-84.6	472.4	2251.1	4689.8	-12.5	
61.60	164.9	3.3	0.0	0.0	-9.4	-0.1	101.1	-79.4	473.4	2161.0	4695.9	-9.4	
61.65	166.4	3.3	0.0	0.0	-7.6	-0.1	101.9	-72.6	474.4	2054.6	4733.2	-7.6	
61.70	167.8	3.3	0.0	0.0	-9.0	-0.1	104.4	-63.9	476.5	1933.5	4792.7	-9.0	
61.75	169.3	3.4	0.0	0.0	-9.7	-0.1	107.5	-54.7	478.6	1792.3	4868.6	-9.7	
61.80	170.8	3.4	0.0	0.0	-8.9	-0.1	109.9	-48.2	480.2	1639.1	4947.9	-8.9	
61.85	172.2	3.3	0.0	0.0	-9.3	-0.1	112.5	-41.8	481.4	1502.1	5031.6	-9.3	
61.90	173.7	3.1	0.0	0.0	-10.9	-0.1	114.5	-35.7	482.1	1379.9	5099.9	-10.9	
61.95	175.2	3.0	0.0	0.0	-11.5	-0.1	114.7	-31.1	482.0	1252.9	5132.9	-11.5	
62.00	176.7	2.9	0.0	0.0	-11.4	-0.1	114.1	-24.8	481.5	1101.0	5150.3	-11.4	
62.05	178.1	2.8	0.0	0.0	-12.2	-0.1	113.3	-19.9	481.3	914.2	5154.8	-12.2	
62.10	179.6	2.8	0.0	0.0	-16.5	-0.1	114.4	-12.2	481.2	707.7	5188.9	-16.5	
62.15	181.1	2.7	0.0	0.0	-18.8	-0.1	115.4	-1.6	480.9	461.8	5217.0	-18.8	
62.20	182.6	2.7	0.0	0.0	-16.9	-0.1	114.5	8.2	480.5	164.8	5202.5	-16.9	
62.25	184.0	2.7	0.0	0.0	-16.7	-0.1	114.5	18.5	481.0	-110.4	5183.8	-16.7	
62.30	185.5	2.7	0.0	0.0	-19.5	-0.1	115.3	28.8	481.3	-345.9	5176.2	-19.5	
62.35	187.0	2.7	0.0	0.0	-19.0	-0.1	113.8	35.7	480.0	-576.4	5137.3	-19.0	
62.40	188.4	2.7	0.0	0.0	-17.5	-0.1	112.3	43.5	478.7	-782.7	5094.8	-17.5	
62.45	189.9	2.7	0.0	0.0	-18.9	-0.1	112.6	52.3	478.2	-959.5	5075.8	-18.9	
62.50	191.4	2.8	0.0	0.0	-21.6	-0.1	112.2	58.5	477.4	-1143.7	5050.2	-21.6	
62.55	192.8	2.8	0.0	0.0	-22.8	-0.1	111.6	65.9	475.3	-1340.2	5021.0	-22.8	
62.60	194.3	2.9	0.0	0.0	-21.0	-0.1	110.4	75.0	473.3	-1570.1	4973.5	-21.0	
62.65	195.8	2.9	0.0	0.0	-19.9	-0.1	108.7	82.9	472.3	-1811.9	4910.9	-19.9	
62.70	197.3	2.8	0.0	0.0	-23.2	-0.1	108.5	91.5	471.1	-2002.8	4876.7	-23.2	
62.75	198.7	2.7	0.0	0.0	-25.1	-0.1	107.8	98.4	468.4	-2160.7	4843.1	-25.1	
62.80	200.2	2.8	0.0	0.0	-23.5	-0.1	106.2	102.1	465.2	-2300.9	4787.6	-23.5	
62.85	201.7	2.9	0.0	0.0	-24.6	-0.1	106.5	107.0	463.3	-2387.0	4749.2	-24.6	
62.90	203.2	2.8	0.0	0.0	-28.3	-0.1	106.7	111.4	460.8	-2443.1	4716.8	-28.3	
62.95	204.6	2.7	0.0	0.0	-28.9	-0.1	104.4	115.6	456.5	-2522.9	4653.0	-28.9	
63.00	206.1	2.8	0.0	0.0	-26.6	-0.1	101.6	123.5	452.2	-2639.3	4568.1	-26.6	
63.05	207.6	2.9	0.0	0.0	-23.6	-0.1	98.7	131.6	449.2	-2785.6	4466.3	-23.6	
63.10	209.1	2.9	0.0	0.0	-22.5	-0.1	96.3	138.7	446.2	-2939.5	4372.0	-22.5	
63.15	210.5	2.7	0.0	0.0	-22.3	-0.1	94.5	146.6	442.5	-3097.9	4297.2	-22.3	
63.20	212.0	2.9	0.0	0.0	-20.3	-0.1	92.3	154.1	438.8	-3272.0	4220.5	-20.3	
63.25	213.5	3.1	0.0	0.0	-20.2	-0.1	90.4	159.7	435.9	-3420.8	4163.9	-20.2	
63.30	215.0	3.2	0.0	0.0	-23.7	-0.1	90.7	163.1	432.5	-3508.5	4165.2	-23.7	
63.35	216.4	3.1	0.0	0.0	-27.2	-0.1	91.5	164.8	427.6	-3584.5	4199.1	-27.2	
63.40	217.9	3.2	0.0	0.0	-28.6	-0.1	92.2	168.7	422.5	-3705.7	4245.6	-28.6	
63.45	219.4	3.2	0.0	0.0	-31.0	-0.1	93.9	176.4	418.1	-3879.1	4321.1	-31.0	
