Time[s]	Rotor azimuth angle[deg]	Hub wind speed magnitude[m/s]	ACTTORQUE1[Nm]	PITRAT1[deg/s]	PITFRIC1[kNm]	PITCH1[deg]	Blade root 1 Fx[KN]	Blade root 1 Fy[KN]	Blade root 1 Fz[KN]	Blade root 1 Mx[kNm]	Blade root 1 My[kNm]	Blade root 1 Mz[kNm]	
END_OF_HEADER
50.00	282.2	9.8	-39.7	-0.0	243.3	-0.2	312.0	251.4	581.3	-5359.3	14718.9	106.9	
50.05	284.9	9.6	-42.2	-0.0	244.5	-0.2	320.8	238.6	570.6	-5136.8	14908.8	99.5	
50.10	287.5	9.7	-43.7	-0.0	245.3	-0.2	326.9	235.0	561.0	-4988.2	15020.8	95.3	
50.15	290.2	10.3	-45.1	-0.0	245.1	-0.2	326.8	233.7	547.9	-4886.9	15053.9	90.4	
50.20	292.8	10.4	-44.8	-0.0	244.7	-0.2	324.6	234.9	535.1	-4918.3	15024.4	91.1	
50.25	295.5	10.5	-43.6	-0.0	244.4	-0.2	323.4	240.1	526.9	-5056.4	14955.4	94.7	
50.30	298.1	10.8	-44.5	-0.0	245.5	-0.2	326.9	243.3	519.0	-5114.8	15010.1	92.7	
50.35	300.8	10.8	-47.8	-0.0	247.1	-0.2	332.4	237.5	507.4	-4953.2	15202.1	82.9	
50.40	303.4	10.8	-49.7	-0.0	247.6	-0.2	334.7	226.4	495.4	-4610.9	15367.0	77.0	
50.45	306.1	10.7	-47.3	-0.0	244.8	-0.2	329.8	213.4	486.4	-4181.3	15315.2	82.5	
50.50	308.7	10.6	-42.9	-0.0	239.2	-0.2	318.3	194.9	477.6	-3765.4	15052.1	92.0	
50.55	311.4	10.5	-39.8	-0.0	234.0	-0.2	307.1	177.8	466.3	-3418.9	14797.8	97.4	
50.60	314.0	10.4	-38.7	-0.0	231.7	-0.2	301.9	170.3	455.7	-3200.9	14694.6	98.8	
50.65	316.7	10.1	-38.2	-0.0	232.1	-0.2	302.5	168.6	447.1	-3195.3	14736.4	101.1	
50.70	319.3	10.1	-40.2	-0.0	234.3	-0.2	308.7	166.0	437.3	-3176.6	14907.9	96.2	
50.75	321.9	10.3	-45.6	-0.0	236.4	-0.2	317.2	158.4	426.5	-2912.0	15117.0	79.9	
50.80	324.6	10.7	-48.1	-0.0	236.7	-0.2	321.4	143.0	419.0	-2517.6	15225.7	71.7	
50.85	327.2	10.8	-46.9	-0.0	236.1	-0.2	320.9	127.4	414.9	-2066.2	15270.4	75.1	
50.90	329.8	10.7	-45.1	-0.0	237.1	-0.2	321.8	106.9	407.1	-1484.6	15444.4	82.3	
50.95	332.5	10.5	-48.7	-0.0	241.0	-0.2	328.8	78.1	395.7	-896.2	15793.6	73.9	
51.00	335.1	10.9	-53.6	-0.0	246.1	-0.2	342.3	61.9	389.7	-540.9	16169.6	62.2	
51.05	337.7	11.0	-59.1	-0.0	251.7	-0.2	359.8	62.4	389.9	-444.0	16549.2	48.9	
51.10	340.3	10.7	-63.2	-0.0	256.1	-0.2	369.7	58.1	385.0	-358.8	16858.3	39.0	
51.15	343.0	10.9	-64.3	-0.0	257.9	-0.2	369.5	45.0	375.1	-129.2	17014.5	37.1	
51.20	345.6	11.2	-61.5	-0.0	256.8	-0.2	363.0	38.5	371.8	90.1	16955.0	45.8	
51.25	348.3	11.5	-58.0	-0.0	254.0	-0.2	353.5	28.2	374.0	355.4	16765.4	54.7	
51.30	350.9	12.0	-59.0	-0.0	253.6	-0.2	349.7	9.2	370.6	862.0	16735.8	51.1	
51.35	353.5	12.1	-59.7	-0.0	254.4	-0.2	346.5	-14.3	365.4	1493.2	16767.4	49.5	
51.40	356.2	12.1	-57.3	-0.0	255.1	-0.2	343.1	-36.5	363.5	1886.9	16783.1	58.3	
51.45	358.8	12.3	-58.8	-0.0	258.1	-0.2	349.3	-41.9	365.3	2071.1	16975.3	56.3	
51.50	1.5	12.1	-64.7	-0.0	263.9	-0.2	362.4	-46.4	365.6	2196.4	17359.2	41.7	
51.55	4.1	11.9	-68.5	-0.0	269.8	-0.2	372.9	-57.9	362.9	2217.4	17770.8	34.7	
51.60	6.7	12.0	-69.3	-0.0	274.7	-0.2	382.4	-60.9	364.1	2266.2	18109.5	37.0	
51.65	9.4	11.8	-71.4	-0.0	278.5	-0.2	389.8	-68.5	370.3	2564.9	18332.7	33.3	
51.70	12.0	11.5	-72.0	-0.0	280.6	-0.2	387.2	-91.1	375.4	3126.0	18394.7	33.6	
51.75	14.6	11.3	-72.6	-0.0	283.9	-0.2	383.9	-110.4	376.1	3712.0	18531.5	34.6	
51.80	17.3	11.1	-71.1	-0.0	287.9	-0.2	382.3	-128.5	377.2	4193.5	18728.3	43.8	
51.85	19.9	10.9	-73.0	-0.0	294.3	-0.2	389.4	-153.3	382.3	4724.9	19050.5	43.6	
51.90	22.5	11.0	-80.1	-0.0	303.3	-0.2	406.2	-172.2	389.5	5274.9	19536.8	28.3	
51.95	25.2	11.1	-88.5	-0.0	311.2	-0.2	423.7	-178.6	397.5	5542.6	20026.5	7.3	
52.00	27.8	11.0	-92.6	-0.0	315.1	-0.2	432.2	-182.5	405.5	5564.9	20286.8	-3.0	
52.05	30.4	10.8	-95.6	-0.0	316.8	-0.2	435.6	-188.8	416.8	5750.3	20345.4	-11.4	
52.10	33.1	11.0	-99.6	-0.0	318.3	-0.2	435.6	-204.8	427.5	6230.6	20295.3	-23.7	
52.15	35.7	11.0	-101.5	-0.0	319.1	-0.2	429.1	-224.2	433.0	6723.3	20187.2	-29.5	
52.20	38.4	10.9	-102.2	-0.0	320.1	-0.2	423.0	-236.7	438.4	7157.9	20106.7	-30.9	
52.25	41.0	10.6	-104.3	-0.0	322.0	-0.2	421.4	-253.3	445.2	7569.1	20085.7	-36.2	
52.30	43.7	10.6	-107.7	-0.0	324.0	-0.2	422.5	-274.5	452.3	7952.7	20054.4	-45.9	
52.35	46.3	10.8	-112.8	-0.0	325.6	-0.2	428.0	-285.0	461.9	8340.0	19987.7	-61.6	
52.40	49.0	11.0	-111.3	-0.0	322.9	-0.2	424.2	-282.9	473.5	8407.2	19740.6	-59.2	
52.45	51.6	11.3	-108.9	-0.0	319.5	-0.2	414.1	-281.3	484.0	8380.2	19493.5	-54.2	
52.50	54.3	11.5	-109.9	-0.0	319.0	-0.2	405.6	-278.8	493.0	8415.1	19460.2	-58.2	
52.55	56.9	10.9	-110.9	-0.0	320.8	-0.2	400.6	-280.4	500.2	8497.7	19575.3	-60.0	
52.60	59.6	10.6	-112.0	-0.0	324.7	-0.2	403.4	-290.1	509.1	8705.4	19769.7	-59.8	
52.65	62.3	10.3	-115.2	-0.0	330.6	-0.2	412.7	-305.3	521.1	9075.1	20030.9	-65.0	
52.70	64.9	10.4	-119.1	-0.0	335.9	-0.2	419.4	-324.6	531.2	9403.6	20265.3	-72.8	
52.75	67.6	10.6	-119.6	-0.0	338.0	-0.2	419.7	-334.0	541.0	9514.2	20354.9	-72.6	
52.80	70.2	10.9	-119.1	-0.0	338.1	-0.2	420.6	-332.3	552.2	9508.6	20356.9	-70.8	
52.85	72.9	11.3	-119.6	-0.0	338.5	-0.2	427.9	-336.0	563.3	9494.8	20364.0	-72.0	
52.90	75.6	11.3	-123.7	-0.0	340.1	-0.2	442.3	-339.0	576.0	9496.8	20439.9	-84.6	
52.95	78.2	11.2	-125.9	-0.0	340.2	-0.2	453.9	-332.8	590.7	9396.3	20465.6	-92.0	
53.00	80.9	10.9	-122.0	-0.0	337.2	-0.2	449.8	-333.7	604.2	9225.7	20295.1	-81.5	
53.05	83.5	10.9	-117.5	-0.0	333.6	-0.2	436.5	-335.3	618.1	9222.7	20009.8	-70.0	
53.10	86.2	11.0	-113.7	-0.0	330.6	-0.2	422.8	-335.8	635.5	9423.7	19690.7	-59.8	
53.15	88.8	10.9	-111.3	-0.0	329.2	-0.2	413.3	-343.7	652.7	9642.8	19458.0	-52.7	
53.20	91.4	10.8	-113.8	-0.0	330.5	-0.2	414.8	-351.1	668.2	9832.4	19440.4	-60.3	
53.25	94.1	10.7	-117.6	-0.0	332.2	-0.2	421.1	-349.9	682.9	9888.4	19530.5	-71.3	
53.30	96.8	10.7	-117.1	-0.0	331.6	-0.2	421.6	-345.4	696.0	9776.6	19532.2	-70.5	
53.35	99.4	10.5	-117.5	-0.0	330.6	-0.2	421.7	-334.9	708.4	9642.8	19525.0	-72.8	
53.40	102.1	10.4	-118.9	-0.0	330.8	-0.2	426.3	-325.2	721.0	9498.3	19604.4	-77.5	
53.45	104.8	10.5	-118.8	-0.0	331.9	-0.2	433.6	-325.7	734.2	9367.9	19728.6	-76.1	
53.50	107.4	10.3	-117.2	-0.0	333.3	-0.2	439.4	-325.6	749.0	9308.7	19844.9	-69.1	
53.55	110.1	10.3	-116.2	-0.0	335.0	-0.2	440.6	-326.4	762.1	9356.8	19952.0	-64.1	
53.60	112.8	10.5	-117.0	-0.0	337.2	-0.2	440.7	-328.9	772.6	9484.1	20058.8	-64.5	
53.65	115.5	10.5	-118.9	-0.0	338.4	-0.2	442.8	-329.9	783.0	9569.1	20103.4	-69.9	
53.70	118.2	10.3	-120.7	-0.0	337.5	-0.2	447.0	-326.8	792.6	9434.1	20082.8	-76.7	
53.75	120.8	10.2	-120.7	-0.0	334.6	-0.2	448.4	-314.2	800.7	9131.5	19993.6	-79.7	
53.80	123.5	10.3	-117.9	-0.0	330.2	-0.2	441.2	-296.9	806.6	8765.7	19834.6	-74.5	
53.85	126.2	10.3	-111.9	-0.0	323.8	-0.2	426.6	-282.8	813.0	8384.3	19533.3	-60.2	
53.90	128.9	10.2	-106.1	-0.0	316.7	-0.2	415.4	-268.2	825.9	8030.7	19143.9	-47.4	
53.95	131.5	10.6	-102.2	-0.0	310.6	-0.2	410.8	-257.0	841.0	7714.6	18798.3	-40.2	
54.00	134.2	10.8	-99.7	-0.0	307.2	-0.2	409.5	-254.9	852.7	7506.2	18598.1	-35.1	
54.05	136.9	10.9	-97.9	-0.0	305.5	-0.2	409.4	-251.7	862.7	7382.8	18510.1	-30.7	
54.10	139.6	10.8	-93.5	-0.0	302.5	-0.2	405.2	-242.1	872.9	7118.8	18387.9	-18.3	
54.15	142.2	10.9	-89.2	-0.0	298.7	-0.2	400.8	-226.3	881.2	6711.8	18263.1	-7.6	
54.20	144.9	10.8	-87.7	-0.0	295.6	-0.2	398.9	-210.3	888.1	6303.0	18177.9	-5.6	
54.25	147.6	10.4	-84.4	-0.0	292.8	-0.2	397.0	-200.2	896.9	5917.4	18101.5	3.1	
54.30	150.3	10.5	-82.1	-0.0	291.1	-0.2	398.3	-187.2	909.0	5615.7	18062.7	9.4	
54.35	152.9	10.5	-82.2	-0.0	290.3	-0.2	402.6	-172.1	918.4	5428.1	18054.3	8.0	
54.40	155.6	10.3	-84.2	-0.0	289.1	-0.2	406.1	-158.2	922.8	5263.1	18017.5	0.0	
54.45	158.3	10.3	-86.4	-0.0	287.4	-0.2	409.5	-144.8	928.0	5064.3	17941.8	-9.2	
54.50	161.0	10.3	-85.0	-0.0	284.0	-0.2	406.8	-141.1	933.0	4843.3	17738.9	-7.7	
54.55	163.6	10.2	-81.0	-0.0	278.5	-0.2	396.9	-133.3	934.0	4585.0	17412.3	0.4	
54.60	166.3	10.2	-74.7	-0.0	270.5	-0.2	380.8	-109.5	931.6	4144.8	16971.2	14.1	
54.65	169.0	10.3	-66.4	-0.0	261.4	-0.2	363.0	-84.4	932.5	3573.1	16464.5	33.4	
54.70	171.7	10.7	88.5	0.1	-254.7	-0.2	353.4	-70.9	939.7	3145.0	16063.7	42.7	
54.75	174.4	10.7	87.9	0.1	-250.8	-0.2	350.4	-65.7	945.5	2881.8	15821.9	42.1	
54.80	177.1	10.6	-66.5	-0.0	248.2	-0.2	347.3	-57.5	943.7	2593.8	15684.6	36.9	
54.85	179.8	10.4	-60.4	-0.0	246.7	-0.2	346.4	-41.6	939.6	2212.5	15645.0	38.9	
54.90	182.5	10.5	-62.1	-0.0	247.3	-0.2	353.5	-22.5	941.1	1850.6	15720.0	33.9	
54.95	185.2	10.7	-64.4	-0.0	248.4	-0.2	362.7	-14.7	944.4	1477.3	15816.2	27.0	
55.00	188.0	11.1	85.2	0.1	-247.9	-0.2	364.6	-7.8	942.9	953.0	15808.2	31.9	
55.05	190.7	11.2	88.0	0.2	-245.8	-0.2	360.2	16.8	939.8	313.7	15689.5	43.2	
55.10	193.3	11.0	82.2	0.1	-241.7	-0.2	350.0	42.1	939.9	-171.6	15407.8	50.8	
55.15	196.0	10.6	-60.2	-0.1	237.2	-0.2	339.6	56.6	941.2	-443.2	15081.6	53.9	
55.20	198.7	10.4	-48.8	-0.0	233.9	-0.2	332.3	66.7	939.0	-735.9	14844.3	64.4	
55.25	201.4	10.3	94.7	0.1	-232.8	-0.2	328.6	76.7	933.8	-1120.7	14743.1	73.8	
55.30	204.1	10.3	92.2	0.2	-234.0	-0.2	330.6	87.0	928.2	-1400.2	14797.5	71.8	
55.35	206.8	10.7	-59.6	-0.0	237.6	-0.2	340.4	99.0	923.1	-1555.1	15022.4	56.3	
55.40	209.5	10.6	-56.9	-0.1	242.0	-0.2	350.4	115.6	917.1	-1837.6	15289.2	54.6	
55.45	212.2	10.7	-54.3	-0.1	246.7	-0.2	359.9	136.3	911.2	-2321.6	15545.3	58.3	
55.50	214.9	11.0	94.1	0.1	-250.2	-0.2	365.3	151.4	903.8	-2807.0	15708.7	59.1	
55.55	217.6	10.7	-59.4	-0.0	250.5	-0.2	363.9	155.6	896.1	-3130.9	15671.5	58.2	
55.60	220.3	10.4	-51.0	-0.0	247.7	-0.2	355.5	162.7	888.8	-3320.4	15433.5	71.4	
55.65	223.0	10.3	-45.1	-0.0	244.9	-0.2	346.0	180.9	881.3	-3516.4	15187.0	89.3	
55.70	225.7	10.2	103.9	0.1	-244.3	-0.2	338.3	192.0	870.6	-3720.2	15101.7	99.5	
55.75	228.5	10.2	123.2	0.7	-244.8	-0.2	334.4	189.9	858.2	-3832.0	15133.2	101.7	
55.80	231.2	10.2	120.9	1.3	-244.6	-0.1	334.1	191.1	848.8	-3925.7	15098.6	94.3	
55.85	233.9	10.5	99.7	1.3	-243.2	-0.1	333.2	202.0	843.0	-4157.6	14919.8	90.6	
55.90	236.6	10.4	80.1	0.9	-241.7	-0.0	330.5	217.9	835.8	-4393.0	14722.0	86.0	
55.95	239.4	10.0	87.8	0.8	-241.0	0.0	328.7	228.3	825.5	-4525.4	14621.7	82.7	
56.00	242.1	9.8	108.9	1.1	-240.3	0.1	328.1	230.4	816.7	-4674.8	14521.6	86.3	
56.05	244.8	9.9	109.5	1.5	-239.2	0.2	327.6	235.1	809.8	-4847.3	14379.1	89.8	
56.10	247.5	10.0	90.9	1.4	-238.3	0.2	324.5	241.0	799.8	-4902.0	14288.3	82.6	
56.15	250.3	9.9	77.6	1.1	-237.1	0.3	316.4	241.2	784.5	-4832.0	14248.4	75.4	
56.20	253.0	9.9	83.7	0.8	-236.2	0.3	311.3	242.4	770.9	-4773.0	14221.5	79.9	
56.25	255.7	9.9	104.0	1.0	-236.9	0.4	313.5	242.0	761.9	-4870.6	14246.5	93.7	
56.30	258.5	9.9	112.3	1.4	-240.2	0.4	323.0	240.0	751.1	-4987.0	14460.4	94.4	
56.35	261.2	10.1	100.0	1.6	-245.3	0.5	334.0	247.4	734.6	-5068.7	14808.2	78.7	
56.40	263.9	10.3	88.7	1.4	-249.0	0.6	338.1	258.0	716.8	-5260.0	15023.5	73.7	
56.45	266.6	10.2	90.4	1.3	-250.7	0.7	340.7	266.0	703.3	-5466.6	15082.1	82.4	
56.50	269.3	10.2	100.2	1.3	-251.0	0.7	344.7	264.4	691.2	-5457.4	15110.1	88.7	
56.55	272.0	10.3	104.6	1.5	-250.1	0.8	343.4	254.0	674.3	-5313.7	15122.2	88.6	
56.60	274.7	10.2	98.4	1.4	-248.2	0.9	335.9	252.6	658.4	-5256.2	15026.7	93.0	
56.65	277.5	10.1	95.8	1.3	-245.7	0.9	325.7	255.0	645.9	-5229.2	14864.3	103.8	
56.70	280.2	9.8	102.4	1.2	-244.7	1.0	320.0	250.3	631.8	-5142.0	14851.5	111.3	
56.75	282.9	9.5	106.4	1.3	-246.2	1.1	323.9	242.3	617.3	-5010.2	15029.9	107.8	
56.80	285.6	9.1	106.2	1.4	-248.7	1.1	332.6	240.1	605.6	-4984.7	15232.2	100.6	
56.85	288.4	9.0	105.1	1.5	-249.7	1.2	336.9	239.1	594.5	-5009.3	15304.0	100.0	
56.90	291.1	9.0	100.6	1.5	-248.5	1.3	336.9	235.7	583.2	-4862.7	15274.1	98.7	
56.95	293.8	8.9	94.8	1.4	-245.8	1.4	334.3	224.0	572.7	-4544.5	15192.0	93.7	
57.00	296.6	9.0	90.6	1.3	-243.5	1.4	333.1	213.8	563.8	-4242.9	15121.1	87.5	
57.05	299.3	9.2	90.1	1.1	-242.5	1.5	334.7	209.4	555.7	-3992.4	15127.3	84.3	
57.10	302.0	9.2	91.3	1.0	-242.6	1.5	334.6	198.0	543.6	-3679.2	15240.0	84.6	
57.15	304.8	9.2	86.6	0.8	-243.4	1.6	338.2	184.5	531.2	-3224.3	15426.8	77.1	
57.20	307.5	9.1	83.3	0.6	-243.6	1.6	343.1	177.1	523.1	-2856.9	15518.7	72.5	
57.25	310.2	9.1	89.8	0.5	-243.0	1.6	343.7	173.6	515.5	-2758.4	15495.1	80.4	
57.30	313.0	9.3	97.2	0.5	-242.8	1.7	340.8	169.6	503.0	-2704.0	15515.3	85.0	
57.35	315.7	9.7	97.5	0.6	-243.9	1.7	341.3	158.9	488.4	-2569.8	15643.4	80.0	
57.40	318.4	10.1	91.1	0.6	-244.6	1.7	344.5	152.7	481.3	-2438.6	15723.5	73.8	
57.45	321.1	10.2	87.7	0.4	-242.8	1.8	341.9	144.9	476.8	-2250.5	15636.6	76.3	
57.50	323.9	9.9	95.8	0.5	-238.5	1.8	328.5	126.9	464.7	-1917.7	15419.6	85.2	
57.55	326.6	9.6	102.6	0.6	-234.2	1.8	313.6	107.4	449.0	-1484.0	15213.7	96.5	
57.60	329.3	9.8	97.4	0.6	-232.3	1.8	308.3	93.8	441.4	-1147.6	15127.0	99.5	
57.65	332.0	10.1	89.6	0.5	-234.1	1.9	314.9	82.3	438.8	-898.4	15274.3	94.5	
57.70	334.7	10.4	86.7	0.3	-239.6	1.9	328.2	71.4	431.3	-662.8	15678.7	82.9	
57.75	337.4	10.3	90.3	0.2	-247.2	1.9	344.2	68.4	421.3	-548.3	16220.3	72.0	
57.80	340.1	10.8	91.3	0.2	-253.2	1.9	358.1	65.5	419.4	-486.9	16643.9	66.9	
57.85	342.8	11.0	89.2	0.1	-257.5	1.9	369.8	51.7	422.2	-178.9	16942.5	60.3	
57.90	345.5	10.9	-62.8	-0.0	260.3	1.9	374.8	28.1	420.2	382.0	17150.3	55.2	
57.95	348.3	10.6	-61.9	-0.1	260.5	1.9	370.0	3.5	414.7	962.1	17164.2	57.5	
58.00	351.0	10.5	-59.2	-0.1	258.9	1.9	362.0	-16.3	413.8	1535.3	17021.0	63.3	
58.05	353.7	10.6	-57.8	-0.1	259.1	1.9	360.1	-35.7	413.5	2115.4	16977.5	59.6	
58.10	356.4	10.4	-60.1	-0.1	261.4	1.9	361.8	-55.6	408.7	2589.2	17074.9	50.5	
58.15	359.2	10.3	-65.4	-0.1	264.2	1.9	365.5	-67.9	404.2	2927.7	17222.1	42.7	
58.20	1.9	10.5	-70.0	-0.2	266.9	1.9	372.0	-73.1	405.1	3134.3	17375.5	36.3	
58.25	4.6	10.9	-74.1	-0.3	269.4	1.9	379.4	-79.6	407.9	3357.2	17495.7	22.6	
58.30	7.3	11.0	-76.6	-0.3	271.3	1.8	382.7	-91.7	409.6	3771.3	17537.7	10.3	
58.35	10.0	11.1	-76.9	-0.3	272.4	1.8	381.0	-110.6	410.3	4297.4	17496.3	7.1	
58.40	12.7	11.6	-76.0	-0.3	273.9	1.8	378.4	-128.8	408.4	4751.5	17489.2	12.0	
58.45	15.4	11.7	-78.3	-0.2	277.1	1.8	380.4	-142.3	407.5	5261.4	17574.4	6.9	
58.50	18.1	11.6	-84.3	-0.3	281.1	1.8	384.6	-162.5	405.5	5770.5	17696.3	-6.6	
58.55	20.8	11.5	-89.3	-0.4	281.0	1.8	379.2	-182.7	405.4	6064.8	17578.4	-12.3	
58.60	23.5	11.9	-90.9	-0.5	277.5	1.8	370.7	-182.8	411.5	6188.0	17275.6	-17.3	
58.65	26.2	12.0	-88.2	-0.6	272.2	1.7	358.3	-179.3	417.4	6171.5	16885.3	-17.0	
58.70	28.9	11.7	-87.1	-0.7	267.3	1.7	345.1	-187.0	422.5	6172.4	16514.5	-14.2	
58.75	31.6	12.0	-86.0	-0.8	265.5	1.7	341.4	-196.4	432.1	6269.8	16315.7	-17.9	
58.80	34.3	12.4	-82.4	-0.8	265.1	1.6	340.5	-208.5	442.3	6353.0	16233.3	-19.7	
58.85	37.0	12.7	-86.2	-0.9	265.0	1.6	332.9	-222.4	449.5	6532.5	16137.6	-21.4	
58.90	39.6	12.9	-91.2	-1.1	265.8	1.5	323.7	-237.2	455.2	6864.5	16061.4	-23.5	
58.95	42.3	13.1	-87.0	-1.2	267.6	1.5	319.4	-254.1	461.3	7181.4	16040.6	-21.1	
59.00	45.0	13.2	-84.2	-1.1	270.7	1.4	323.5	-264.3	471.1	7418.1	16154.2	-22.8	
59.05	47.7	13.1	-89.1	-1.1	276.4	1.4	337.2	-270.2	482.3	7667.9	16459.2	-38.8	
59.10	50.4	12.9	-95.7	-1.0	280.7	1.3	346.4	-277.7	491.3	7818.4	16701.6	-51.7	
59.15	53.0	12.6	-105.3	-1.2	282.7	1.2	350.7	-278.5	499.6	7896.4	16814.4	-60.7	
59.20	55.7	12.4	-111.5	-1.4	283.4	1.2	351.2	-274.5	512.8	8123.8	16762.0	-71.6	
59.25	58.4	12.3	-110.3	-1.5	284.2	1.1	347.0	-284.9	524.3	8447.8	16642.2	-75.1	
59.30	61.1	12.2	-109.3	-1.7	285.8	1.0	340.3	-303.5	530.5	8761.1	16592.9	-72.7	
59.35	63.7	12.1	-110.5	-1.8	288.8	0.9	337.5	-311.4	536.6	9050.2	16673.6	-74.8	
59.40	66.4	11.6	-116.8	-2.0	291.7	0.8	335.3	-320.8	544.8	9382.8	16718.1	-80.7	
59.45	69.1	11.3	-127.3	-2.4	293.8	0.7	334.4	-335.6	553.3	9703.4	16683.4	-88.7	
59.50	71.7	11.3	-124.0	-2.8	295.5	0.6	337.3	-341.2	562.9	9865.2	16708.8	-89.8	
59.55	74.4	11.1	-110.0	-2.7	297.5	0.5	343.2	-340.3	570.9	9849.6	16866.9	-85.6	
59.60	77.1	10.9	-109.4	-2.6	298.7	0.3	347.8	-340.2	578.4	9723.8	17030.9	-88.3	
59.65	79.7	10.6	-101.0	-2.3	299.0	0.2	349.2	-336.6	590.2	9681.9	17080.1	-84.7	
59.70	82.4	10.6	-87.6	-1.8	298.7	0.1	347.0	-334.4	604.3	9701.7	17034.1	-70.8	
59.75	85.0	10.5	-90.7	-1.4	300.2	0.0	346.4	-340.7	617.7	9822.3	17075.3	-63.7	
59.80	87.6	10.5	-97.3	-1.1	304.7	-0.0	353.1	-346.1	630.9	9973.4	17342.4	-69.9	
59.85	90.3	10.8	-101.8	-0.8	309.3	-0.1	362.3	-347.4	643.6	10011.7	17681.6	-74.5	
59.90	92.9	10.9	-107.5	-0.6	314.4	-0.1	376.6	-350.6	657.7	10038.4	18052.1	-80.2	
59.95	95.5	10.9	-113.4	-0.4	319.7	-0.1	393.7	-350.8	674.1	10079.4	18428.5	-88.9	
60.00	98.2	11.0	-117.8	-0.3	323.6	-0.2	406.7	-347.7	688.7	9986.9	18782.2	-95.1	
60.05	100.8	11.0	-118.6	-0.2	325.2	-0.2	413.0	-337.5	700.1	9692.2	19062.0	-92.4	
60.10	103.4	11.0	-117.1	-0.2	325.0	-0.2	415.3	-324.6	712.5	9328.3	19242.1	-84.8	
60.15	106.1	10.9	-115.0	-0.1	324.8	-0.2	416.3	-323.1	726.7	9092.5	19321.8	-75.7	
60.20	108.7	10.6	-114.1	-0.1	325.3	-0.2	417.2	-325.5	740.0	9039.9	19369.4	-70.8	
60.25	111.3	10.2	-112.9	-0.1	325.1	-0.2	415.1	-321.8	751.2	9031.0	19362.7	-65.7	
60.30	113.9	9.9	-111.5	-0.1	324.3	-0.2	411.3	-318.6	760.1	8975.2	19326.3	-61.0	
60.35	116.6	9.9	-111.2	-0.0	323.1	-0.2	408.4	-317.4	767.4	8896.3	19265.5	-60.5	
60.40	119.2	10.1	-112.2	-0.0	320.4	-0.2	406.3	-312.3	775.0	8780.5	19103.9	-66.3	
60.45	121.8	10.2	-111.9	-0.0	314.8	-0.2	402.5	-301.1	783.1	8511.5	18789.3	-70.4	
60.50	124.5	10.3	-109.9	-0.0	306.5	-0.2	394.9	-277.7	792.9	8107.7	18332.7	-71.5	
60.55	127.1	10.4	-105.5	-0.0	298.1	-0.2	385.8	-256.0	803.0	7734.4	17856.7	-64.8	
60.60	129.7	10.4	-101.2	-0.0	291.5	-0.2	376.5	-250.8	812.2	7527.8	17430.7	-56.4	
60.65	132.4	10.3	-96.8	-0.0	285.9	-0.2	366.8	-253.0	821.8	7445.4	17019.0	-46.6	
60.70	135.0	10.0	-91.3	-0.0	280.3	-0.2	356.2	-250.8	831.2	7385.7	16600.1	-33.4	
60.75	137.6	9.9	-88.1	-0.0	275.5	-0.2	347.4	-248.1	839.7	7383.1	16223.3	-27.2	
60.80	140.2	10.0	-86.9	-0.0	271.4	-0.2	342.3	-243.1	846.9	7335.6	15927.9	-27.1	
60.85	142.9	10.1	-85.2	-0.0	267.0	-0.2	338.8	-232.9	855.3	7086.2	15690.1	-25.5	
60.90	145.5	10.0	-81.8	-0.0	261.8	-0.2	334.1	-217.0	861.8	6614.8	15502.3	-19.0	
60.95	148.1	10.0	-79.1	-0.0	257.9	-0.2	331.6	-197.4	867.9	6170.9	15400.5	-13.9	
61.00	150.7	10.0	-78.7	-0.0	255.2	-0.2	330.3	-181.7	877.0	5856.5	15324.6	-14.9	
61.05	153.3	10.3	-76.7	-0.0	253.9	-0.2	331.2	-167.8	885.0	5585.8	15334.4	-9.4	
61.10	155.9	10.5	-79.1	-0.0	256.7	-0.2	342.1	-156.6	889.6	5427.7	15596.7	-14.9	
61.15	158.5	10.7	-83.3	-0.0	262.2	-0.2	359.2	-155.5	891.6	5362.0	16010.0	-23.9	
61.20	161.1	10.7	-85.1	-0.0	266.6	-0.2	374.6	-153.8	893.4	5197.5	16372.2	-25.6	
61.25	163.8	10.6	-84.4	-0.0	267.5	-0.2	382.7	-139.3	897.3	4850.6	16539.2	-22.1	
61.30	166.4	10.4	-81.9	-0.0	264.8	-0.2	380.5	-115.9	897.7	4332.4	16497.3	-16.3	
61.35	169.0	10.2	-77.7	-0.0	259.9	-0.2	372.4	-92.2	896.0	3636.6	16331.9	-7.0	
61.40	171.6	10.1	-71.7	-0.0	254.0	-0.2	362.2	-68.8	898.4	2852.6	16071.3	7.9	
61.45	174.2	10.0	-66.9	-0.0	249.3	-0.2	355.3	-48.9	900.9	2164.6	15848.1	19.6	
61.50	176.8	9.6	-65.7	-0.0	246.3	-0.2	351.5	-34.9	899.9	1746.9	15687.5	20.9	
61.55	179.5	9.6	-65.0	-0.0	243.9	-0.2	349.0	-22.7	897.7	1492.4	15543.3	20.8	
61.60	182.1	9.6	-61.5	-0.0	240.4	-0.2	343.7	-13.6	899.0	1228.1	15321.2	29.4	
61.65	184.7	9.9	-56.5	-0.0	236.8	-0.2	337.2	-9.1	900.4	940.5	15081.7	42.9	
61.70	187.3	9.8	-55.7	-0.0	234.7	-0.2	334.6	-0.9	897.8	668.4	14948.5	43.5	
61.75	189.9	9.6	-57.7	-0.0	234.7	-0.2	338.3	15.3	894.2	323.9	14952.6	36.6	
61.80	192.5	9.5	-58.0	-0.0	235.6	-0.2	345.1	41.8	895.9	-213.0	14995.4	36.6	
61.85	195.1	9.6	-58.5	-0.0	237.9	-0.2	355.2	65.5	899.2	-753.9	15104.6	37.1	
61.90	197.7	9.7	-61.2	-0.0	240.0	-0.2	363.2	73.2	896.5	-1064.6	15222.6	29.8	
61.95	200.3	9.8	-62.2	-0.0	238.6	-0.2	360.2	72.6	889.9	-1106.1	15129.8	25.1	
62.00	202.9	9.7	-57.5	-0.0	233.2	-0.2	347.2	77.1	887.2	-1036.1	14757.9	35.7	
62.05	205.5	9.7	-50.3	-0.0	226.7	-0.2	330.7	85.5	884.8	-1016.1	14309.5	54.1	
62.10	208.1	9.8	-48.1	-0.0	223.1	-0.2	319.5	87.6	874.5	-1022.4	14073.3	57.9	
62.15	210.8	10.0	-51.2	-0.0	223.1	-0.2	318.4	89.4	861.4	-1118.0	14078.1	47.3	
62.20	213.4	10.0	-52.4	-0.0	224.4	-0.2	322.6	108.6	856.0	-1505.4	14115.3	44.3	
62.25	216.0	9.9	-48.8	-0.0	225.3	-0.2	324.1	133.9	852.9	-2078.0	14085.3	57.9	
62.30	218.6	9.7	-47.3	-0.0	227.8	-0.2	325.4	153.9	840.4	-2525.3	14185.0	65.2	
62.35	221.2	9.8	-50.5	-0.0	231.4	-0.2	330.3	168.6	827.2	-2760.8	14396.2	58.1	
62.40	223.8	9.9	-51.5	-0.0	232.6	-0.2	334.1	176.5	822.5	-2984.3	14427.2	55.9	
62.45	226.4	9.5	-49.0	-0.0	230.5	-0.2	331.9	177.9	819.5	-3186.7	14233.6	62.5	
62.50	229.0	9.4	-48.0	-0.0	227.5	-0.2	323.8	179.0	808.8	-3236.1	14014.4	62.6	
62.55	231.6	9.7	-46.6	-0.0	224.3	-0.2	310.0	181.3	793.3	-3314.5	13794.9	64.4	
