Time[s]	Rotor azimuth angle[deg]	Hub wind speed magnitude[m/s]	ACTTORQUE1[Nm]	PITRAT1[deg/s]	PITFRIC1[kNm]	PITCH1[deg]	Blade root 1 Fx[KN]	Blade root 1 Fy[KN]	Blade root 1 Fz[KN]	Blade root 1 Mx[kNm]	Blade root 1 My[kNm]	Blade root 1 Mz[kNm]	
END_OF_HEADER
50.00	240.0	6.7	81.5	-0.0	-215.4	-0.1	270.4	237.3	689.7	-4914.8	12669.5	64.4	
50.05	242.4	6.6	82.3	-0.0	-213.1	-0.1	260.7	238.7	681.4	-5049.6	12452.6	69.6	
50.10	244.9	6.7	81.4	-0.0	-212.2	-0.1	252.8	242.7	668.6	-5170.2	12349.2	67.2	
50.15	247.3	6.8	81.0	-0.0	-212.3	-0.1	247.2	251.3	656.2	-5421.8	12253.9	65.7	
50.20	249.8	6.6	81.5	-0.0	-212.1	-0.1	243.6	260.1	647.3	-5759.5	12079.1	67.7	
50.25	252.2	6.6	80.4	-0.0	-211.8	-0.1	243.6	269.6	638.3	-6000.2	11923.0	64.2	
50.30	254.7	6.6	77.9	-0.0	-211.5	-0.1	243.5	277.7	625.3	-6143.6	11810.5	55.8	
50.35	257.1	6.2	77.2	-0.0	-209.7	-0.1	236.5	282.6	611.4	-6261.1	11612.5	55.3	
50.40	259.5	6.1	75.4	-0.0	-207.6	-0.1	231.6	287.1	600.4	-6287.7	11421.3	51.3	
50.45	262.0	5.9	71.8	-0.0	-204.7	-0.1	230.2	286.1	591.3	-6200.2	11236.7	41.7	
50.50	264.4	5.8	69.0	-0.0	-200.7	-0.1	225.4	277.6	580.1	-6079.8	10999.9	36.1	
50.55	266.9	5.9	68.2	-0.0	-197.8	-0.1	219.6	277.5	566.6	-6032.5	10796.3	36.2	
50.60	269.3	6.0	68.4	-0.0	-196.1	-0.1	215.4	285.6	554.6	-6084.0	10614.5	38.8	
50.65	271.7	6.0	67.6	-0.0	-195.0	-0.1	213.1	286.3	543.4	-6182.4	10477.0	37.2	
50.70	274.2	5.5	65.5	-0.0	-194.4	-0.1	213.8	281.7	530.8	-6212.8	10428.5	30.4	
50.75	276.6	5.1	63.6	-0.0	-194.1	-0.1	215.2	280.8	517.4	-6248.5	10391.4	24.4	
50.80	279.1	4.7	63.4	-0.0	-193.2	-0.1	213.8	282.2	505.5	-6293.5	10294.8	24.6	
50.85	281.5	5.1	62.5	-0.0	-191.3	-0.1	212.4	280.1	494.8	-6179.7	10210.5	23.3	
50.90	284.0	5.4	60.2	-0.0	-188.5	-0.1	212.1	269.1	483.8	-5937.1	10148.4	18.1	
50.95	286.4	5.5	59.4	-0.0	-185.4	-0.1	208.9	256.7	472.7	-5787.3	10018.2	18.4	
51.00	288.9	5.4	60.1	-0.0	-182.8	-0.1	203.3	254.8	462.1	-5779.7	9822.7	23.5	
51.05	291.3	5.3	60.2	-0.0	-180.7	-0.1	197.9	258.3	450.2	-5761.8	9655.6	26.0	
51.10	293.7	5.3	59.7	-0.0	-178.7	-0.1	194.3	256.2	437.6	-5647.7	9573.9	26.2	
51.15	296.2	5.3	58.7	-0.0	-177.6	-0.1	194.4	251.2	426.2	-5534.5	9565.5	24.0	
51.20	298.6	5.4	57.3	-0.0	-177.0	-0.1	196.8	249.5	416.7	-5481.6	9554.2	19.7	
51.25	301.1	5.6	55.8	-0.0	-175.6	-0.1	195.2	245.7	406.4	-5416.8	9493.2	15.8	
51.30	303.5	5.5	54.1	-0.0	-173.4	-0.1	190.4	237.6	394.4	-5243.1	9435.9	12.2	
51.35	305.9	5.5	53.2	-0.0	-172.2	-0.1	189.4	231.3	383.9	-5040.6	9470.6	10.4	
51.40	308.4	5.4	52.7	-0.0	-172.4	-0.1	193.4	224.1	375.8	-4904.9	9575.4	8.6	
51.45	310.8	5.7	50.5	-0.0	-173.9	-0.1	201.5	215.1	366.6	-4822.1	9756.1	-0.6	
51.50	313.3	5.8	47.7	-0.0	-175.4	-0.1	210.5	204.5	355.4	-4694.6	9961.4	-11.8	
51.55	315.7	5.7	47.2	-0.0	-175.0	-0.1	215.0	193.4	346.6	-4495.4	10043.0	-12.8	
51.60	318.2	5.9	49.3	-0.0	-172.2	-0.1	210.5	188.0	340.5	-4318.8	9912.9	-2.9	
51.65	320.6	5.9	52.5	-0.0	-167.3	-0.1	197.0	184.4	333.8	-4182.7	9617.2	12.9	
51.70	323.1	5.9	53.8	-0.0	-162.0	-0.1	182.2	173.8	325.0	-3985.0	9324.7	22.6	
51.75	325.5	6.0	53.0	-0.0	-158.7	-0.1	177.2	159.8	317.2	-3666.5	9235.6	23.3	
51.80	327.9	6.1	51.2	-0.0	-158.7	-0.1	184.3	148.2	313.1	-3321.9	9377.8	17.2	
51.85	330.4	6.1	50.4	-0.0	-161.1	-0.1	196.2	138.3	308.5	-3041.6	9655.5	11.7	
51.90	332.8	6.0	49.2	-0.0	-164.3	-0.1	208.6	129.9	300.3	-2760.8	9975.8	4.6	
51.95	335.2	5.9	46.9	-0.0	-166.9	-0.1	220.9	119.3	294.4	-2461.9	10248.8	-5.9	
52.00	337.7	6.0	45.6	-0.0	-168.0	-0.1	231.1	103.9	295.3	-2169.9	10392.0	-11.3	
52.05	340.1	6.4	46.4	-0.0	-167.8	-0.1	234.6	91.2	295.4	-1887.8	10437.1	-8.5	
52.10	342.6	6.3	48.2	-0.0	-165.7	-0.1	228.5	78.7	288.5	-1589.3	10359.1	-0.2	
52.15	345.0	6.1	48.9	-0.0	-162.4	-0.1	219.3	64.0	282.0	-1296.2	10191.6	5.6	
52.20	347.5	5.7	47.4	-0.0	-160.8	-0.1	218.8	51.3	282.1	-948.2	10122.8	1.9	
52.25	349.9	6.1	44.9	-0.0	-162.5	-0.1	227.4	36.8	283.2	-563.0	10259.0	-8.5	
52.30	352.4	6.4	42.6	-0.0	-165.9	-0.1	237.3	19.9	279.4	-179.2	10511.7	-19.5	
52.35	354.8	6.4	42.2	-0.0	-168.0	-0.1	241.7	6.5	274.7	172.6	10662.6	-23.0	
52.40	357.3	6.6	44.3	-0.0	-166.6	-0.1	236.6	-6.0	275.7	466.3	10561.8	-14.6	
52.45	359.7	6.7	47.6	-0.0	-164.0	-0.1	227.5	-16.5	278.9	714.0	10376.2	-0.6	
52.50	2.1	6.8	50.8	-0.0	-163.3	-0.1	221.3	-24.3	277.6	924.7	10323.2	11.2	
52.55	4.6	6.7	50.8	-0.0	-164.5	-0.1	218.8	-33.9	274.9	1121.0	10403.9	10.0	
52.60	7.0	6.7	50.7	-0.0	-168.4	-0.1	224.5	-44.5	276.1	1320.6	10649.7	5.6	
52.65	9.5	6.9	50.2	-0.0	-173.6	-0.1	234.9	-53.8	280.1	1513.5	10985.6	-1.4	
52.70	12.0	6.9	50.6	-0.0	-178.7	-0.1	243.6	-66.1	282.9	1773.2	11300.6	-5.1	
52.75	14.4	7.0	49.5	-0.0	-182.6	-0.1	249.1	-81.2	285.4	2167.6	11499.7	-12.8	
52.80	16.9	7.1	49.6	-0.0	-183.6	-0.1	247.3	-98.7	291.5	2596.2	11472.3	-13.4	
52.85	19.3	7.2	51.9	-0.0	-182.4	-0.1	239.8	-113.3	299.1	2893.6	11301.5	-4.2	
52.90	21.8	7.4	53.0	-0.0	-181.9	-0.1	233.3	-121.9	302.8	3100.5	11210.0	0.2	
52.95	24.3	7.6	54.1	-0.0	-183.5	-0.1	230.3	-132.2	304.0	3315.9	11268.5	2.4	
53.00	26.7	7.4	54.6	-0.0	-187.5	-0.1	234.9	-141.1	308.9	3510.8	11500.1	-0.2	
53.05	29.2	7.5	54.3	-0.0	-194.3	-0.1	249.2	-144.6	319.0	3719.0	11917.4	-8.0	
53.10	31.7	7.5	54.2	-0.0	-202.6	-0.1	267.3	-153.7	327.8	4042.4	12411.2	-16.6	
53.15	34.1	7.7	54.0	-0.0	-210.8	-0.1	283.6	-175.5	335.3	4527.1	12817.4	-25.5	
53.20	36.6	7.5	53.4	-0.0	-217.4	-0.1	297.0	-197.1	346.4	5078.0	13065.3	-34.2	
53.25	39.1	7.3	54.7	-0.0	-221.3	-0.1	303.9	-209.7	358.7	5509.1	13158.8	-33.7	
53.30	41.6	7.2	56.7	-0.0	-223.9	-0.1	304.8	-217.9	365.9	5781.4	13234.5	-29.4	
53.35	44.0	6.9	57.0	-0.0	-227.9	-0.1	306.3	-226.2	368.9	6022.8	13435.3	-32.1	
53.40	46.5	6.7	57.3	-0.0	-232.0	-0.1	310.6	-234.4	375.0	6207.5	13658.3	-35.3	
53.45	49.0	6.7	58.8	-0.0	-233.9	-0.1	313.9	-241.8	388.1	6340.4	13720.9	-32.0	
53.50	51.5	6.9	59.2	-0.0	-234.9	-0.1	314.2	-249.8	401.8	6564.6	13675.1	-31.6	
53.55	53.9	7.1	57.1	-0.0	-238.2	-0.1	315.8	-261.7	410.8	6952.4	13725.6	-42.2	
53.60	56.4	7.2	55.0	-0.0	-242.5	-0.1	318.0	-277.0	418.5	7350.8	13836.6	-53.7	
53.65	58.9	7.3	56.6	-0.0	-245.0	-0.1	317.7	-284.8	429.1	7592.2	13900.9	-50.6	
53.70	61.4	7.1	58.9	-0.0	-247.0	-0.1	316.8	-286.8	438.9	7695.4	14000.2	-44.9	
53.75	63.9	6.9	60.3	-0.0	-249.0	-0.1	314.0	-296.4	446.7	7844.9	14073.7	-42.1	
53.80	66.4	7.3	62.0	-0.0	-249.8	-0.1	308.9	-305.6	456.7	7988.2	14041.4	-37.0	
53.85	68.8	7.2	63.9	-0.0	-248.9	-0.1	304.3	-305.0	470.3	7988.6	13960.6	-29.5	
53.90	71.3	6.9	64.0	-0.0	-249.0	-0.1	303.2	-302.6	482.3	7955.7	13989.2	-29.4	
53.95	73.8	6.9	62.2	-0.0	-251.3	-0.1	305.9	-306.1	493.4	8037.2	14115.3	-37.8	
54.00	76.3	7.1	61.8	-0.0	-254.8	-0.1	312.4	-312.7	506.7	8234.0	14264.9	-42.6	
54.05	78.8	7.2	62.7	-0.0	-257.9	-0.1	318.3	-317.6	522.7	8444.4	14377.4	-42.8	
54.10	81.3	7.1	63.6	-0.0	-260.7	-0.1	318.3	-322.8	534.9	8589.3	14514.1	-42.4	
54.15	83.8	7.1	63.9	-0.0	-263.8	-0.1	315.6	-326.7	542.0	8640.8	14745.1	-44.4	
54.20	86.3	7.2	63.9	-0.0	-266.2	-0.1	316.8	-322.6	551.9	8589.4	14980.4	-46.8	
54.25	88.8	7.5	64.8	-0.0	-268.8	-0.1	326.5	-318.7	567.1	8567.7	15191.2	-46.3	
54.30	91.2	7.6	64.6	-0.0	-273.1	-0.1	341.9	-320.1	583.9	8626.7	15480.7	-51.4	
54.35	93.7	7.7	63.5	-0.0	-278.3	-0.1	355.4	-321.2	597.2	8673.9	15852.8	-60.3	
54.40	96.2	7.9	62.7	-0.0	-282.8	-0.1	362.4	-318.0	607.3	8649.2	16234.5	-67.5	
54.45	98.7	8.2	63.9	-0.0	-285.4	-0.1	362.8	-314.4	617.8	8568.3	16496.9	-66.0	
54.50	101.2	8.3	65.7	-0.0	-287.0	-0.1	362.5	-314.4	631.2	8537.4	16642.4	-61.3	
54.55	103.7	8.4	65.9	-0.0	-289.3	-0.1	365.6	-314.8	646.3	8607.8	16784.3	-63.3	
54.60	106.2	8.4	66.6	-0.0	-290.7	-0.1	366.6	-313.5	658.9	8581.3	16899.0	-62.1	
54.65	108.7	8.3	68.3	-0.0	-290.2	-0.1	365.1	-308.0	669.1	8398.3	16961.9	-55.8	
54.70	111.2	8.0	69.6	-0.0	-289.7	-0.1	365.6	-299.7	680.0	8193.0	17018.8	-50.9	
54.75	113.7	7.8	69.4	-0.0	-289.5	-0.1	369.3	-295.9	692.0	8051.8	17058.4	-51.2	
54.80	116.2	7.6	67.7	-0.0	-289.4	-0.1	377.0	-291.1	704.8	7922.0	17090.8	-57.0	
54.85	118.7	7.6	66.2	-0.0	-288.7	-0.1	383.9	-281.4	719.7	7788.8	17088.3	-61.4	
54.90	121.2	7.5	66.7	-0.0	-287.4	-0.1	384.9	-277.2	732.8	7640.3	17037.5	-58.5	
54.95	123.7	7.6	68.4	-0.0	-284.7	-0.1	377.5	-275.3	743.0	7482.1	16897.1	-49.7	
55.00	126.3	7.7	70.3	-0.0	-281.2	-0.1	367.0	-267.4	753.0	7346.8	16700.2	-39.7	
55.05	128.8	7.5	72.9	-0.0	-277.4	-0.1	356.8	-259.5	763.1	7213.1	16478.2	-27.2	
55.10	131.3	7.8	75.5	-0.0	-275.4	-0.1	351.8	-256.9	773.0	7131.5	16357.1	-16.2	
55.15	133.8	8.1	75.4	-0.0	-275.8	-0.1	356.2	-251.1	781.2	7024.2	16428.2	-17.0	
55.20	136.3	8.4	73.7	-0.0	-276.3	-0.1	365.6	-240.8	790.2	6811.6	16545.7	-23.1	
55.25	138.9	8.2	71.7	-0.0	-275.9	-0.1	375.2	-229.3	800.6	6532.5	16613.5	-29.7	
55.30	141.4	8.1	69.1	-0.0	-274.7	-0.1	381.8	-215.8	811.1	6291.1	16601.5	-37.5	
55.35	143.9	8.1	68.6	-0.0	-270.6	-0.1	378.2	-204.5	817.9	5993.8	16402.7	-35.3	
55.40	146.4	8.2	70.0	-0.0	-263.7	-0.1	365.9	-193.7	823.4	5656.6	16016.9	-23.5	
55.45	149.0	8.2	70.4	-0.0	-256.2	-0.1	351.1	-180.4	830.4	5426.2	15547.4	-14.5	
55.50	151.5	8.1	71.3	-0.0	-248.8	-0.1	334.4	-173.8	834.5	5254.9	15068.7	-3.9	
55.55	154.0	8.2	71.8	-0.0	-241.4	-0.1	318.9	-171.9	836.6	5061.3	14584.5	5.1	
55.60	156.6	8.3	70.0	-0.0	-235.0	-0.1	311.9	-158.5	842.1	4813.8	14194.7	5.2	
55.65	159.1	8.4	67.2	-0.0	-230.2	-0.1	310.3	-141.2	847.6	4467.7	13948.7	0.4	
55.70	161.6	8.2	66.1	-0.0	-226.6	-0.1	309.8	-127.3	849.3	4032.6	13812.3	0.4	
55.75	164.2	7.9	66.3	-0.0	-223.5	-0.1	310.6	-108.5	852.9	3542.3	13713.8	4.0	
55.80	166.7	7.7	65.5	-0.0	-219.1	-0.1	308.8	-86.3	859.2	3003.0	13525.1	5.6	
55.85	169.2	7.8	64.3	-0.0	-214.4	-0.1	302.9	-63.8	862.4	2480.9	13294.5	6.5	
55.90	171.8	7.7	63.1	-0.0	-210.7	-0.1	296.7	-47.9	863.2	2077.5	13108.5	5.8	
55.95	174.3	7.4	63.6	-0.0	-207.9	-0.1	292.7	-40.3	866.7	1717.8	12961.5	10.5	
56.00	176.8	7.3	63.6	-0.0	-206.5	-0.1	293.6	-31.3	872.2	1383.8	12886.9	11.9	
56.05	179.4	7.2	62.4	-0.0	-205.9	-0.1	295.6	-20.0	873.4	1080.3	12870.5	8.3	
56.10	181.9	7.0	62.2	-0.0	-204.6	-0.1	293.1	-10.8	870.9	735.5	12806.8	8.9	
56.15	184.5	6.8	62.7	-0.0	-203.0	-0.1	290.8	3.2	871.3	297.8	12707.9	12.3	
56.20	187.0	7.0	63.5	-0.0	-202.4	-0.1	293.3	24.0	875.5	-197.8	12654.8	15.4	
56.25	189.6	7.5	63.7	-0.0	-202.6	-0.1	294.7	43.0	875.9	-671.9	12639.6	16.0	
56.30	192.1	7.8	64.2	-0.0	-202.1	-0.1	290.7	58.6	871.4	-1076.2	12580.4	18.2	
56.35	194.7	7.8	65.5	-0.0	-200.0	-0.1	282.6	73.7	869.5	-1437.7	12400.7	24.7	
56.40	197.2	7.7	66.9	-0.0	-197.6	-0.1	276.0	85.6	871.9	-1707.0	12192.8	31.9	
56.45	199.8	7.6	65.5	-0.0	-196.9	-0.1	274.9	92.3	870.3	-1775.9	12120.5	28.0	
56.50	202.3	7.7	63.4	-0.0	-197.7	-0.1	276.4	98.6	862.9	-1808.5	12174.5	19.9	
56.55	204.9	7.7	64.0	-0.0	-198.7	-0.1	276.8	107.8	856.8	-2047.3	12209.2	21.0	
56.60	207.4	7.4	65.1	-0.0	-200.3	-0.1	279.1	120.2	854.8	-2391.2	12248.9	23.1	
56.65	210.0	7.3	65.0	-0.0	-202.4	-0.1	281.5	132.7	849.5	-2689.4	12336.5	20.6	
56.70	212.6	7.4	67.0	-0.0	-204.2	-0.1	279.7	145.6	838.4	-3000.4	12401.0	25.9	
56.75	215.1	7.5	71.1	-0.0	-205.6	-0.1	277.4	162.5	831.2	-3345.5	12410.3	38.4	
56.80	217.7	7.5	73.2	-0.0	-207.3	-0.1	279.2	176.2	829.5	-3597.7	12446.6	43.8	
56.85	220.2	7.5	72.7	-0.0	-208.9	-0.1	281.8	177.0	823.7	-3671.6	12543.2	40.8	
56.90	222.8	7.6	72.0	-0.0	-209.8	-0.1	280.9	175.6	811.7	-3685.2	12627.4	37.4	
56.95	225.4	7.3	72.5	-0.0	-210.1	-0.1	277.8	186.3	801.0	-3802.6	12618.6	38.6	
57.00	227.9	7.0	73.8	-0.0	-210.2	-0.1	275.0	203.7	793.9	-4046.7	12531.8	43.0	
57.05	230.5	6.7	73.3	-0.0	-210.3	-0.1	272.9	212.4	785.8	-4311.3	12443.2	41.3	
57.10	233.1	7.0	72.1	-0.0	-211.9	-0.1	275.0	218.2	774.6	-4593.3	12462.2	35.5	
57.15	235.6	7.0	73.2	-0.0	-214.3	-0.1	275.6	233.8	763.4	-5007.2	12477.0	36.9	
57.20	238.2	7.0	76.0	-0.0	-215.8	-0.1	270.2	253.1	754.8	-5474.7	12381.8	45.2	
57.25	240.8	6.8	77.0	-0.0	-215.7	-0.1	263.5	262.5	745.2	-5750.0	12251.3	48.7	
57.30	243.4	6.7	75.3	-0.0	-214.0	-0.1	260.8	260.6	734.6	-5777.8	12112.9	44.6	
57.35	246.0	6.7	74.0	-0.0	-211.2	-0.1	259.8	255.2	726.8	-5759.1	11907.2	42.8	
57.40	248.5	6.8	73.4	-0.0	-209.8	-0.1	258.4	257.9	718.7	-5858.9	11746.7	42.3	
57.45	251.1	6.8	72.8	-0.0	-211.6	-0.1	256.6	270.5	704.7	-6075.0	11774.4	38.3	
57.50	253.7	6.6	73.0	-0.0	-214.6	-0.1	255.6	277.1	687.5	-6338.9	11894.4	36.0	
57.55	256.3	6.4	73.7	-0.0	-217.8	-0.1	262.2	282.6	676.3	-6609.7	12005.2	35.1	
57.60	258.9	6.1	73.7	-0.0	-220.8	-0.1	274.2	297.9	673.7	-6857.5	12068.2	32.1	
57.65	261.5	6.1	73.8	-0.0	-222.1	-0.1	274.5	307.4	667.0	-7061.9	12041.4	31.3	
57.70	264.1	6.2	74.0	-0.0	-220.8	-0.1	261.0	306.0	650.8	-7131.8	11932.7	33.4	
57.75	266.7	6.1	74.9	-0.0	-216.7	-0.1	244.9	304.5	636.6	-7049.8	11671.4	40.5	
57.80	269.3	6.1	76.3	-0.0	-210.3	-0.1	230.8	298.1	629.9	-6893.8	11250.1	51.6	
57.85	271.9	6.3	75.0	-0.0	-205.3	-0.1	225.0	292.0	621.9	-6688.5	10975.1	52.3	
57.90	274.5	6.4	72.6	-0.0	-204.2	-0.1	226.0	284.6	606.7	-6553.9	10989.9	44.9	
57.95	277.1	6.3	70.3	-0.0	-205.8	-0.1	231.4	274.9	589.9	-6585.7	11142.4	35.6	
58.00	279.7	5.9	66.7	-0.0	-208.2	-0.1	245.9	278.9	580.5	-6628.0	11293.6	20.9	
58.05	282.3	6.1	63.8	-0.0	-209.2	-0.1	259.8	285.3	574.8	-6588.5	11356.2	10.0	
58.10	284.9	6.2	63.4	-0.0	-207.7	-0.1	261.0	280.1	563.7	-6429.6	11334.5	9.9	
58.15	287.5	6.1	64.0	-0.0	-204.7	-0.1	252.4	273.2	548.9	-6182.2	11264.5	15.1	
58.20	290.1	6.3	66.0	-0.0	-200.8	-0.1	238.0	269.1	534.4	-5981.0	11097.7	25.8	
58.25	292.8	6.4	68.5	-0.0	-196.6	-0.1	223.0	263.3	521.6	-5805.6	10889.3	38.7	
58.30	295.4	6.4	69.8	-0.0	-192.9	-0.1	214.7	253.9	510.8	-5519.0	10767.7	46.8	
58.35	298.0	6.4	69.8	-0.0	-190.3	-0.1	212.5	242.7	502.0	-5232.4	10735.1	49.2	
58.40	300.6	6.8	69.5	-0.0	-190.1	-0.1	214.2	236.7	492.2	-5109.3	10794.7	48.5	
58.45	303.2	7.2	68.9	-0.0	-192.1	-0.1	219.7	238.4	480.7	-5120.0	10955.3	44.2	
58.50	305.8	7.0	68.1	-0.0	-194.5	-0.1	226.2	231.4	469.5	-5123.8	11162.8	39.1	
58.55	308.5	7.1	65.6	-0.0	-196.7	-0.1	235.4	220.5	460.1	-5034.0	11398.7	28.5	
58.60	311.1	7.1	62.5	-0.0	-198.4	-0.1	244.5	221.0	452.9	-4931.1	11562.7	16.1	
58.65	313.7	6.9	61.9	-0.0	-197.9	-0.1	243.3	221.4	444.7	-4899.5	11544.5	14.7	
58.70	316.4	6.9	63.4	-0.0	-195.0	-0.1	233.4	208.0	434.9	-4759.1	11423.6	22.6	
58.75	319.0	6.8	64.2	-0.0	-191.3	-0.1	225.9	189.7	427.4	-4433.1	11318.9	29.0	
58.80	321.6	6.5	65.1	-0.0	-188.2	-0.1	222.7	174.3	422.8	-4165.4	11210.0	35.3	
58.85	324.3	6.6	65.4	-0.0	-186.4	-0.1	222.7	169.2	416.6	-4021.5	11133.9	38.1	
58.90	326.9	6.6	62.8	-0.0	-185.8	-0.1	226.9	165.8	408.3	-3810.1	11161.8	29.8	
58.95	329.6	6.6	60.3	-0.0	-185.4	-0.1	231.0	151.1	401.7	-3601.6	11218.3	21.5	
59.00	332.2	6.5	59.1	-0.0	-185.6	-0.1	235.8	141.8	398.5	-3485.3	11277.4	17.1	
59.05	334.8	6.6	58.3	-0.0	-186.0	-0.1	239.7	145.0	394.4	-3372.0	11336.1	14.0	
59.10	337.5	7.0	57.4	-0.0	-184.8	-0.1	238.1	137.7	387.4	-3113.4	11337.0	12.3	
59.15	340.1	7.4	55.7	-0.0	-183.0	-0.1	238.5	116.2	384.6	-2665.6	11337.7	8.1	
59.20	342.8	7.5	54.8	-0.0	-181.7	-0.1	243.3	94.2	389.7	-2160.4	11352.6	6.6	
59.25	345.4	7.5	56.1	-0.0	-180.7	-0.1	244.0	73.1	390.2	-1732.4	11366.6	11.8	
59.30	348.1	7.6	57.3	-0.0	-180.5	-0.1	242.0	51.4	380.5	-1234.6	11444.9	16.3	
59.35	350.7	8.0	56.0	-0.0	-181.7	-0.1	245.9	32.7	374.4	-683.1	11584.9	10.4	
59.40	353.4	8.5	53.5	-0.0	-183.8	-0.1	256.1	19.3	379.9	-293.0	11735.5	-0.1	
59.45	356.0	8.2	52.0	-0.0	-186.4	-0.1	265.7	12.0	384.4	-53.6	11905.5	-7.7	
59.50	358.7	8.2	52.9	-0.0	-188.3	-0.1	266.9	1.4	377.8	223.7	12050.5	-6.8	
59.55	1.3	8.3	53.8	-0.0	-188.8	-0.1	264.2	-15.4	371.8	615.5	12087.2	-4.0	
59.60	4.0	8.5	54.8	-0.0	-188.8	-0.1	265.6	-26.5	379.1	1044.2	12038.5	-0.6	
59.65	6.7	8.5	55.4	-0.0	-188.7	-0.1	267.0	-37.9	390.1	1469.0	11972.5	1.6	
59.70	9.3	8.5	55.8	-0.0	-189.8	-0.1	264.9	-60.4	389.3	1921.6	11988.4	1.7	
59.75	12.0	8.8	56.5	-0.0	-191.8	-0.1	262.2	-83.9	385.4	2393.0	12052.1	2.3	
59.80	14.7	8.9	57.0	-0.0	-194.0	-0.1	263.5	-97.0	390.8	2717.9	12129.5	1.8	
59.85	17.4	8.9	56.8	-0.0	-196.9	-0.1	268.7	-102.0	400.1	2889.4	12289.7	-1.8	
59.90	20.0	8.7	56.6	-0.0	-200.8	-0.1	272.1	-108.0	403.3	3077.7	12529.9	-6.4	
59.95	22.7	8.4	57.3	-0.0	-205.6	-0.1	276.3	-120.9	402.9	3227.4	12838.4	-9.0	
60.00	25.4	8.1	59.4	-0.0	-209.9	-0.1	282.7	-132.4	410.5	3353.3	13104.9	-6.0	
60.05	28.1	7.8	61.2	-0.0	-213.9	-0.1	290.0	-138.3	424.8	3534.2	13329.4	-3.6	
60.10	30.8	7.7	60.9	-0.0	-219.0	-0.1	296.3	-151.4	433.6	3859.1	13601.0	-10.0	
60.15	33.5	7.8	60.0	-0.0	-225.2	-0.1	302.4	-170.6	437.5	4315.4	13910.5	-19.1	
60.20	36.2	8.3	60.6	-0.0	-230.2	-0.1	308.8	-187.6	448.0	4724.8	14124.9	-22.1	
60.25	38.9	8.7	64.2	-0.0	-233.4	-0.1	311.3	-200.3	462.8	4983.7	14246.8	-12.9	
60.30	41.6	8.8	64.1	-0.0	-238.3	-0.1	313.9	-205.5	470.3	5219.1	14539.1	-18.2	
60.35	44.3	8.8	63.8	-0.0	-244.7	-0.1	318.1	-207.0	473.0	5387.9	14977.6	-25.7	
60.40	47.0	8.7	66.2	-0.0	-251.0	-0.1	328.6	-209.4	484.4	5527.1	15398.0	-23.7	
60.45	49.7	8.6	67.8	-0.0	-257.3	-0.1	343.8	-220.8	505.2	5829.6	15713.7	-24.6	
60.50	52.4	8.5	68.7	-0.0	-264.3	-0.1	357.1	-246.0	519.5	6218.8	16047.5	-28.5	
60.55	55.1	8.2	68.2	-0.0	-272.3	-0.1	367.1	-262.1	525.8	6598.1	16485.0	-38.1	
60.60	57.8	8.0	66.9	-0.0	-279.6	-0.1	376.5	-264.6	536.8	6994.7	16884.9	-50.1	
60.65	60.5	8.0	66.8	-0.0	-284.3	-0.1	383.1	-274.4	552.9	7372.3	17057.0	-54.8	
60.70	63.2	8.2	67.2	-0.0	-287.8	-0.1	387.3	-293.5	567.1	7780.8	17106.6	-57.0	
60.75	65.9	8.3	66.8	-0.0	-290.1	-0.1	385.2	-305.5	576.0	8054.7	17151.7	-60.8	
60.80	68.6	8.4	68.1	-0.0	-289.4	-0.1	372.7	-305.6	584.7	8140.9	17071.5	-55.5	
60.85	71.3	8.2	69.9	-0.0	-287.5	-0.1	359.6	-297.0	597.8	8181.5	16938.8	-47.5	
60.90	74.1	8.1	70.3	-0.0	-287.6	-0.1	353.4	-299.9	614.4	8418.2	16823.8	-46.2	
60.95	76.8	8.1	70.7	-0.0	-289.3	-0.1	353.2	-318.4	630.0	8726.4	16754.8	-46.5	
61.00	79.5	8.4	71.1	-0.0	-291.2	-0.1	355.9	-329.4	645.4	8940.1	16764.4	-47.0	
61.05	82.2	8.3	69.6	-0.0	-293.9	-0.1	360.4	-327.4	658.0	9020.1	16930.8	-54.9	
61.10	85.0	8.1	68.7	-0.0	-298.1	-0.1	369.0	-325.8	667.1	9041.2	17256.6	-62.2	
61.15	87.7	8.2	66.2	-0.0	-304.4	-0.1	387.3	-329.7	679.6	9126.8	17681.9	-77.2	
61.20	90.5	8.2	64.0	-0.0	-310.7	-0.1	410.1	-336.9	696.1	9192.4	18097.4	-91.0	
61.25	93.2	8.1	65.0	-0.0	-314.7	-0.1	424.6	-336.7	710.8	9081.0	18443.5	-91.5	
61.30	95.9	8.1	68.8	-0.0	-317.3	-0.1	427.9	-326.4	721.4	8879.8	18763.9	-81.3	
61.35	98.7	8.1	71.4	-0.0	-319.6	-0.1	427.2	-317.4	730.6	8701.8	19050.4	-74.6	
61.40	101.4	8.1	73.8	-0.0	-320.6	-0.1	431.4	-317.8	745.4	8601.4	19157.2	-67.4	
61.45	104.2	8.1	73.4	-0.0	-320.3	-0.1	441.1	-316.7	764.4	8475.7	19149.2	-68.4	
61.50	106.9	8.3	73.6	-0.0	-317.5	-0.1	441.1	-312.7	779.3	8290.3	18993.2	-64.7	
61.55	109.6	8.5	76.3	-0.0	-311.8	-0.1	425.5	-304.8	789.7	8051.2	18666.0	-49.8	
61.60	112.4	8.9	79.6	-0.0	-304.7	-0.1	405.5	-291.7	801.8	7813.5	18256.2	-31.5	
61.65	115.1	8.6	80.9	-0.0	-298.7	-0.1	392.6	-283.8	818.4	7622.0	17877.2	-21.0	
61.70	117.9	8.5	79.6	-0.0	-295.7	-0.1	391.9	-285.3	834.9	7492.2	17670.4	-22.6	
61.75	120.7	8.4	76.8	-0.0	-295.3	-0.1	399.0	-284.4	849.8	7395.9	17643.2	-31.6	
61.80	123.4	8.7	74.0	-0.0	-294.6	-0.1	405.0	-270.0	863.3	7232.1	17653.6	-40.7	
61.85	126.2	9.0	72.3	-0.0	-291.3	-0.1	401.3	-253.1	875.2	7004.7	17505.4	-43.2	
61.90	128.9	9.2	72.9	-0.0	-286.1	-0.1	389.7	-245.4	885.6	6802.8	17201.9	-35.7	
61.95	131.7	8.8	73.4	-0.0	-281.2	-0.1	379.9	-238.0	897.5	6650.3	16888.7	-29.2	
62.00	134.5	8.6	73.6	-0.0	-276.9	-0.1	373.3	-230.7	910.5	6483.7	16628.1	-24.4	
62.05	137.2	8.5	75.8	-0.0	-273.7	-0.1	366.7	-222.5	922.4	6318.2	16448.5	-13.6	
62.10	140.0	8.6	76.9	-0.0	-273.3	-0.1	365.3	-213.2	931.1	6222.0	16468.9	-9.4	
62.15	142.8	8.5	76.4	-0.0	-275.1	-0.1	371.2	-207.7	937.5	6082.2	16648.7	-12.8	
62.20	145.6	8.5	75.0	-0.0	-276.8	-0.1	383.0	-198.3	946.4	5842.1	16847.2	-19.4	
62.25	148.4	8.6	72.6	-0.0	-278.0	-0.1	394.6	-185.2	956.3	5573.3	17010.7	-28.8	
62.30	151.2	8.8	70.8	-0.0	-277.7	-0.1	398.2	-177.6	960.1	5263.5	17079.4	-34.6	
62.35	153.9	8.8	71.3	-0.0	-273.4	-0.1	391.4	-163.2	962.1	4876.9	16895.6	-28.6	
62.40	156.7	8.5	72.7	-0.0	-265.3	-0.1	377.9	-139.4	970.2	4414.1	16440.1	-15.6	
62.45	159.5	8.2	74.4	-0.0	-255.8	-0.1	360.1	-123.2	978.4	3934.9	15881.7	-0.2	
62.50	162.3	8.3	75.1	-0.0	-248.9	-0.1	346.2	-116.0	981.7	3599.0	15469.1	8.9	
62.55	165.1	8.6	75.1	-0.0	-244.6	-0.1	339.1	-104.9	984.6	3311.6	15228.4	13.1	
62.60	167.9	9.0	76.5	-0.0	-241.8	-0.1	337.1	-84.8	988.5	2874.7	15120.8	20.9	
62.65	170.7	9.1	77.1	-0.0	-241.4	-0.1	341.4	-64.9	990.6	2390.6	15174.8	23.3	
